Time,Amplitude
0.0,0.09905186339108688
0.002,0.19857458149283083
0.004,0.10835226251966425
0.006,-0.07478091051842577
0.008,-0.16679634474543753
0.01,-0.08257944350590583
0.012,0.08845293878886112
0.014,0.17922677334943654
0.016,0.11630400992238422
0.018,-0.02301788045688046
0.02,-0.10187218950916287
0.022,-0.06802427943608852
0.024,0.01823735666644223
0.026,0.05760950376525716
0.028,0.02036515382713698
0.03,-0.045213176839035425
0.032,-0.07838159770813843
0.034,-0.06963439905203166
0.036,-0.05292329194977037
0.038,-0.05759148756470494
0.04,-0.07375728060117265
0.042,-0.07689217283263394
0.044,-0.06655566655964452
0.046,-0.06309806275189815
0.048,-0.08021909064605849
0.05,-0.10203169659130032
0.052,-0.10290798985464068
0.054,-0.07622748012863774
0.056,-0.05002880516840352
0.058,-0.051779600784325454
0.06,-0.08250798998444736
0.062,-0.11336904445011033
0.064,-0.11968353095568109
0.066,-0.10103383668674297
0.068,-0.07970515465531738
0.07,-0.07166611637947316
0.072,-0.07714677315792366
0.074,-0.08511715367155571
0.076,-0.08996413145398514
0.078,-0.0946797305901109
0.08,-0.09916583711668321
0.082,-0.09945376441297071
0.084,-0.09102745735968477
0.086,-0.07952921030343942
0.088,-0.07663004636798044
0.09,-0.08374165706886612
0.092,-0.09194940776448698
0.094,-0.08916123514216417
0.096,-0.07676103973274889
0.098,-0.0699660481956268
0.1,-0.07856266601094482
0.102,-0.09859682865310174
0.104,-0.11621526853039803
0.106,-0.12508837846605514
0.108,-0.1304978430700443
0.11,-0.13438548984890197
0.112,-0.13093360457019948
0.114,-0.1059839861663209
0.116,-0.05844919528509688
0.118,0.0010515726703687776
0.12,0.05836546903423384
0.122,0.11951151961984444
0.124,0.20337369188731544
0.126,0.32260783943139737
0.128,0.46023103119975145
0.13,0.5795272787498095
0.132,0.6505073942878536
0.134,0.6761667424488071
0.136,0.6774073375457583
0.138,0.6707888692191776
0.14,0.6473346162671217
0.142,0.5808834858810611
0.144,0.45641889883410297
0.146,0.2824955288123602
0.148,0.08631969668921119
0.15,-0.09773672935454818
0.152,-0.24256590790186844
0.154,-0.337775196609032
0.156,-0.38741353854903937
0.158,-0.4070698046560996
0.16,-0.4172618274047242
0.162,-0.4231493165143201
0.164,-0.4182090582030334
0.166,-0.38952160735772157
0.168,-0.33786334716563843
0.17,-0.28612289057271956
0.172,-0.2599569041059599
0.174,-0.26543610621000796
0.176,-0.281356861327496
0.178,-0.2772443478941983
0.18,-0.24128995677167003
0.182,-0.1910943748983521
0.184,-0.14970201148057363
0.186,-0.1300349091085561
0.188,-0.12232677096027617
0.19,-0.113561470443248
0.192,-0.09933804746367211
0.194,-0.08442607138667282
0.196,-0.0747090126464323
0.198,-0.06895367606091458
0.2,-0.06733772394109426
0.202,-0.074177948427526
0.204,-0.08948805739496987
0.206,-0.10429459488622855
0.208,-0.10119357429202062
0.21,-0.0734714696116935
0.212,-0.036964644086854
0.214,-0.019144665122793714
0.216,-0.03210417190732663
0.218,-0.0634113205909141
0.22,-0.08182551638927857
0.222,-0.07019017968827743
0.224,-0.04139875091780951
0.226,-0.02173150393816671
0.228,-0.027559056566344085
0.23,-0.04613922100203561
0.232,-0.05641639928364295
0.234,-0.047608326625760186
0.236,-0.03144503909489121
0.238,-0.022724556557744975
0.24,-0.02447026079981781
0.242,-0.03003386340179715
0.244,-0.03218448070165688
0.246,-0.032733474866408215
0.248,-0.03582797675073785
0.25,-0.03667770845295081
0.252,-0.02989643508726084
0.254,-0.01387752921267833
0.256,-0.0012681927861283792
0.258,-0.0034692363107018185
0.26,-0.02256556938958677
0.262,-0.041293828084398444
0.264,-0.043791229736061005
0.266,-0.028708270717452137
0.268,-0.008329626560463642
0.27,-0.0009541717747357801
0.272,-0.006559550669716194
0.274,-0.017040590479134542
0.276,-0.019539298740557383
0.278,-0.012559952652187008
0.28,-0.0018420461602587004
0.282,0.00833105167182206
0.284,0.0124391198806623
0.286,0.01305758411894229
0.288,0.007944789326829788
0.29,-3.513955412444858e-05
0.292,-0.004945390819641546
0.294,-0.00044360400213252403
0.296,0.01188707541411614
0.298,0.02545546348438856
0.3,0.02651810118478999
0.302,0.016027311262421358
0.304,0.0036479310363495116
0.306,0.0019200751349594967
0.308,0.013462095423555177
0.31,0.029231057991689718
0.312,0.03783582849774727
0.314,0.0365711599616836
0.316,0.02964593812763645
0.318,0.02465280878254164
0.32,0.025587991871697007
0.322,0.03234263848547461
0.324,0.042900759362506494
0.326,0.05287650554080582
0.328,0.06019537493217437
0.33,0.05877993856530845
0.332,0.05164515866433773
0.334,0.047977377377114695
0.336,0.05708179853779465
0.338,0.07871537471097843
0.34,0.0985340247962509
0.342,0.10607798024811183
0.344,0.09990665658192666
0.346,0.09013085318745406
0.348,0.09051862538417245
0.35,0.1036150613677147
0.352,0.12185561437160525
0.354,0.13418055943050378
0.356,0.13987647781262028
0.358,0.14119778509445688
0.36,0.14295270616122382
0.362,0.1479708966540885
0.364,0.15619315189984173
0.366,0.16858341674474292
0.368,0.18607237787606523
0.37,0.20264476567082684
0.372,0.2094050806633373
0.374,0.20323035525933786
0.376,0.19517339849097598
0.378,0.1998016944059983
0.38,0.22124159875737717
0.382,0.2460834672425357
0.384,0.2575315156404859
0.386,0.24929794419264192
0.388,0.2362086020081674
0.39,0.23413708015627585
0.392,0.2481674741299499
0.394,0.2668539933625526
0.396,0.2744831497258698
0.398,0.2677916139207618
0.4,0.2565288625322099
0.402,0.2505554393850059
0.404,0.24880166821019134
0.406,0.2468510190467991
0.408,0.2443281377833041
0.41,0.24268040156052828
0.412,0.24406621808888912
0.414,0.24209900284382124
0.416,0.2276601827537126
0.418,0.2011902556444841
0.42,0.17574058194290104
0.422,0.16650949301461487
0.424,0.1714601456554385
0.426,0.1730922758568155
0.428,0.15554841685099935
0.43,0.12040267794740407
0.432,0.08773865215142843
0.434,0.07506623097961303
0.436,0.08013097602354703
0.438,0.08420129651913669
0.44,0.07432212377207076
0.442,0.04994233979324384
0.444,0.026004202878363167
0.446,0.01394921799447948
0.448,0.011204668047076169
0.45,0.01211814407264673
0.452,0.00805569958284903
0.454,-2.2901141977854423e-05
0.456,-0.009094679462973545
0.458,-0.017671571774308576
0.46,-0.024521958336297587
0.462,-0.030832823265177296
0.464,-0.0316613923683239
0.466,-0.029065106895515783
0.468,-0.026028928515638882
0.47,-0.029281093382417026
0.472,-0.038058407212007296
0.474,-0.04730868915720046
0.476,-0.05177017349743602
0.478,-0.049145990077874104
0.48,-0.04550730555320447
0.482,-0.04625123369574158
0.484,-0.04915186513188442
0.486,-0.052657175527586815
0.488,-0.054277511073267
0.49,-0.057570342050834
0.492,-0.06185375204311896
0.494,-0.061459469639741575
0.496,-0.05267475185721625
0.498,-0.04119626077358907
0.5,-0.03502977894498801
0.502,-0.04163605323834102
0.504,-0.057349911801019206
0.506,-0.06577842810572858
0.508,-0.05856727890579813
0.51,-0.04176767401535169
0.512,-0.03025442862472889
0.514,-0.036847123293234155
0.516,-0.05582599659362291
0.518,-0.0703205434991283
0.52,-0.06704579240964109
0.522,-0.04895377319815127
0.524,-0.03233847880166746
0.526,-0.029519398891022234
0.528,-0.04213144016570299
0.53,-0.06060324053712775
0.532,-0.0711884700280703
0.534,-0.067644839988502
0.536,-0.05452284736137707
0.538,-0.04152583911606471
0.54,-0.035734071006396695
0.542,-0.041824548875530616
0.544,-0.0541636309656382
0.546,-0.06420106022846629
0.548,-0.061933661699728554
0.55,-0.04956728387520741
0.552,-0.035479817965326406
0.554,-0.031202472817238716
0.556,-0.0415549104153832
0.558,-0.057869899874201734
0.56,-0.06739299764352924
0.562,-0.062374875940622736
0.564,-0.04868192390732894
0.566,-0.037963029794021594
0.568,-0.03732212017001645
0.57,-0.047104538850212936
0.572,-0.0576496524647615
0.574,-0.06123627541733369
0.576,-0.05564365863951125
0.578,-0.0474643792060113
0.58,-0.04048782153503048
0.582,-0.03983336517156726
0.584,-0.04408409912092394
0.586,-0.04943658051299423
0.588,-0.05423774802289828
0.59,-0.05454340121459015
0.592,-0.050806294960079094
0.594,-0.044795631339916424
0.596,-0.0423322383063991
0.598,-0.04695024981879206
0.6,-0.05689565915663954
0.602,-0.06723260688839208
0.604,-0.07040838198326568
0.606,-0.06557960653142554
0.608,-0.05619997333802575
0.61,-0.04852561242300488
0.612,-0.04790296585474188
0.614,-0.05440439482651492
0.616,-0.0624014843756768
0.618,-0.06578047896363852
0.62,-0.06170079315890107
0.622,-0.053142550958963114
0.624,-0.047795508043048045
0.626,-0.04965595142766775
0.628,-0.05585664183547768
0.63,-0.06148882870226268
0.632,-0.0627154053924746
0.634,-0.059488304896934796
0.636,-0.05573605069743653
0.638,-0.053439945352972806
0.64,-0.05476239065329719
0.642,-0.05851659760093097
0.644,-0.06124175357979492
0.646,-0.06385475061771671
0.648,-0.06364756323224652
0.65,-0.06033835705515241
0.652,-0.05165817798762873
0.654,-0.04473190069986703
0.656,-0.04405129967522871
0.658,-0.05324729903110796
0.66,-0.06675850900840274
0.662,-0.07331228982916224
0.664,-0.06645680616868942
0.666,-0.05295433638867757
0.668,-0.045595810047007794
0.67,-0.050399001596740996
0.672,-0.06458709424625941
0.674,-0.07469278636869034
0.676,-0.07009579561370231
0.678,-0.05473817883249773
0.68,-0.041731064050017384
0.682,-0.04180372224869148
0.684,-0.05216005254580902
0.686,-0.065832560549083
0.688,-0.07269142367717345
0.69,-0.07067910249227422
0.692,-0.06546122569126459
0.694,-0.05902749639055654
0.696,-0.05647971319534142
0.698,-0.055737814349046975
0.7,-0.05896209076207193
0.702,-0.06311508839481535
0.704,-0.06533243175549712
0.706,-0.06208282247842138
0.708,-0.054228337738744074
0.71,-0.046168762315778496
0.712,-0.04614917445713576
0.714,-0.0532927523427136
0.716,-0.061511722679551226
0.718,-0.06127649433545635
0.72,-0.05020541269478008
0.722,-0.033216554512798466
0.724,-0.022207421118775755
0.726,-0.023447051684830002
0.728,-0.032625024592176886
0.73,-0.041475008179756176
0.732,-0.043805557463133867
0.734,-0.038635175150415195
0.736,-0.02995501443031236
0.738,-0.023521588947075147
0.74,-0.02237789050913874
0.742,-0.02372419641051667
0.744,-0.025679245486421153
0.746,-0.023233151555725657
0.748,-0.014027647477529385
0.75,0.0011074526609678088
0.752,0.01490101481483545
0.754,0.021836510721044342
0.756,0.017083950304461398
0.758,0.007260001252185923
0.76,0.00027241018013560137
0.762,0.002464684953057045
0.764,0.016540437646492264
0.766,0.03435809475667238
0.768,0.045982812592713945
0.77,0.04539026151234433
0.772,0.0368848004528531
0.774,0.027450799614870305
0.776,0.025492621931491953
0.778,0.03305400278172624
0.78,0.039957056018921834
0.782,0.03536946500290094
0.784,0.017314686366765954
0.786,-0.009614721450976298
0.788,-0.02996542417730521
0.79,-0.03434353875530275
0.792,-0.02744734170149229
0.794,-0.02004439408696267
0.796,-0.025392721666899463
0.798,-0.044220729280959055
0.8,-0.06777229108521618
0.802,-0.08222311623656355
0.804,-0.08181215078223185
0.806,-0.07044513112941696
0.808,-0.0599375851934331
0.81,-0.05780761767770841
0.812,-0.06593062703966399
0.814,-0.07780533594873168
0.816,-0.08507802002006715
0.818,-0.08331441056488448
0.82,-0.07317661446263969
0.822,-0.06166769800025504
0.824,-0.059393976067479544
0.826,-0.0699115879795252
0.828,-0.08757106677774075
0.83,-0.0999156296281737
0.832,-0.09607543405969651
0.834,-0.07894816871124259
0.836,-0.06001347845952855
0.838,-0.05439200235109136
0.84,-0.06842624077142946
0.842,-0.091404000627198
0.844,-0.10780580591987804
0.846,-0.10659297325227864
0.848,-0.08850640647940569
0.85,-0.06536647193069708
0.852,-0.05241912810297244
0.854,-0.058067607797067315
0.856,-0.07592534324956203
0.858,-0.09469177467827306
0.86,-0.1009280534487068
0.862,-0.09376809453319762
0.864,-0.08416784199321622
0.866,-0.08820569385309104
0.868,-0.1105202598935402
0.87,-0.1406789804282194
0.872,-0.15440879975559366
0.874,-0.13521210656678076
0.876,-0.08545982595527778
0.878,-0.02356128329418512
0.88,0.03133013450222583
0.882,0.0809126847168578
0.884,0.142605245735503
0.886,0.23511914728750855
0.888,0.3590171531889688
0.89,0.4935178581199886
0.892,0.6067752451184181
0.894,0.6822869266016597
0.896,0.7184752295910325
0.898,0.7232033964171365
0.9,0.7039767476952533
0.902,0.6592668884369666
0.904,0.5784356433059925
0.906,0.4531154930067784
0.908,0.2826265605136995
0.91,0.08341184073084475
0.912,-0.11520407976453072
0.914,-0.27704865753451924
0.916,-0.38182141415444115
0.918,-0.4295095952756415
0.92,-0.4414004101796949
0.922,-0.44378684277702485
0.924,-0.4434696492670282
0.926,-0.43262299408865795
0.928,-0.4026463859164912
0.93,-0.3553891997627427
0.932,-0.31090759243426264
0.934,-0.28602148756147083
0.936,-0.2820522619355641
0.938,-0.2823773578916855
0.94,-0.2708598014681965
0.942,-0.24162339757983892
0.944,-0.20405761634454478
0.946,-0.16942991524306256
0.948,-0.13950971982171448
0.95,-0.11504404617095129
0.952,-0.0927356500790381
0.954,-0.0772377435399665
0.956,-0.07151131580489092
0.958,-0.07301212454606774
0.96,-0.07400049147402975
0.962,-0.07149825374381563
0.964,-0.06863511108225688
0.966,-0.07109318741941922
0.968,-0.07829317781789288
0.97,-0.07958585796345291
0.972,-0.07027191504760666
0.974,-0.05228175651435035
0.976,-0.03436883868098599
0.978,-0.02674429433696735
0.98,-0.0328624290128918
0.982,-0.04312433453156899
0.984,-0.04956227360357898
0.986,-0.047192236600791505
0.988,-0.03780471579235162
0.99,-0.026505927330600178
0.992,-0.018390938753796483
0.994,-0.018222546217664167
0.996,-0.023877097060124662
0.998,-0.033972981162587505
1.0,-0.04046398622496835
1.002,-0.03812356089727185
1.004,-0.029633489069931192
1.006,-0.023143053994584686
1.008,-0.023744269008306142
1.01,-0.03133370300103589
1.012,-0.03646664044255493
1.014,-0.031444707568081535
1.016,-0.016254985780669487
1.018,-0.0025991312833631495
1.02,0.0010143464834803382
1.022,-0.008596624284595372
1.024,-0.02131833785477217
1.026,-0.02781973234348707
1.028,-0.023209766179380673
1.03,-0.011728740323717119
1.032,0.00026655808526676594
1.034,0.007058621435849897
1.036,0.006525145062339135
1.038,-0.00021701146549529682
1.04,-0.006744103973304817
1.042,-0.009945302299495215
1.044,-0.005194277409228725
1.046,0.005502309824454503
1.048,0.014175227817128527
1.05,0.012792829109119443
1.052,0.004050320945713331
1.054,-0.00386004767148086
1.056,-0.002595676999495474
1.058,0.011945137521845596
1.06,0.029151141345522016
1.062,0.037994203389502504
1.064,0.03259123708484696
1.066,0.020350894597561616
1.068,0.013146528545364081
1.07,0.019137129667126714
1.072,0.034260382401140745
1.074,0.048512154241469846
1.076,0.05434617458887348
1.078,0.04999797852774026
1.08,0.04231138494029841
1.082,0.04012383304967633
1.084,0.04779744344347499
1.086,0.06131783019793914
1.088,0.0726548457849499
1.09,0.07469497554935668
1.092,0.06764329249555934
1.094,0.05881388444538095
1.096,0.05781163157311636
1.098,0.06759954291667772
1.1,0.08515620837456456
1.102,0.09979242902251798
1.104,0.10645952580096309
1.106,0.10471146461646734
1.108,0.10304147655640568
1.11,0.10930742562047922
1.112,0.12420489589355778
1.114,0.14036256770519426
1.116,0.15332469000272045
1.118,0.1586791631572588
1.12,0.159245391377399
1.122,0.1601490493976433
1.124,0.16479314887180585
1.126,0.17380828900814965
1.128,0.18490695821920833
1.13,0.19347536615533406
1.132,0.19799968308526802
1.134,0.20087583201742323
1.136,0.20421849846633336
1.138,0.21054098080427078
1.14,0.22000178029995143
1.142,0.2295351187388139
1.144,0.23863585366330425
1.146,0.2441794234654554
1.148,0.24783707074847658
1.15,0.25117207651628864
1.152,0.25461271014836967
1.154,0.25902440211396893
1.156,0.266480294746721
1.158,0.2738119799432683
1.16,0.2786439085602414
1.162,0.2799167362399267
1.164,0.2762050669460136
1.166,0.2712520304660748
1.168,0.26907498948125486
1.17,0.2687335180582475
1.172,0.26632156877516466
1.174,0.2552325788050772
1.176,0.23801497784809436
1.178,0.21951310582800526
1.18,0.20730664873103205
1.182,0.2027912308113536
1.184,0.1984044593825323
1.186,0.18732997941480903
1.188,0.16876212316515113
1.19,0.1507731815966228
1.192,0.13869441275178093
1.194,0.13125371250458323
1.196,0.12106710215350029
1.198,0.10387540347100888
1.2,0.08235565327776234
1.202,0.06501250298340729
1.204,0.05666863486850092
1.206,0.05214856151025246
1.208,0.045006199186350515
1.21,0.030951428670187516
1.212,0.01649886339309898
1.214,0.007884002287456773
1.216,0.006038469809883125
1.218,0.004486785617365442
1.22,-0.002695111128556398
1.222,-0.016486713208001668
1.224,-0.028974073114106602
1.226,-0.03456961942855853
1.228,-0.031676113572328746
1.23,-0.029075297277214175
1.232,-0.03208353177006925
1.234,-0.040560392547113924
1.236,-0.04938045924198046
1.238,-0.05034875540259053
1.24,-0.045721361220600776
1.242,-0.03956446768481684
1.244,-0.038154115298809826
1.246,-0.044623358258802384
1.248,-0.05420464770739712
1.25,-0.05934252415272313
1.252,-0.0562088081191079
1.254,-0.047203086319849104
1.256,-0.040282400114845886
1.258,-0.04101815933498389
1.26,-0.04930198320074372
1.262,-0.057800684481933304
1.264,-0.05843781639313167
1.266,-0.051209797538803205
1.268,-0.044601419555932255
1.27,-0.04567810137549565
1.272,-0.0543234122529012
1.274,-0.0633387017302538
1.276,-0.06541531427516264
1.278,-0.05803051336603458
1.28,-0.04748002440466605
1.282,-0.04242656334311342
1.284,-0.045812563566181526
1.286,-0.052958158220935685
1.288,-0.056762545146797294
1.29,-0.05604746405482166
1.292,-0.052188055991020006
1.294,-0.04891363373395916
1.296,-0.04749121211523317
1.298,-0.05037947928391867
1.3,-0.05579320155142034
1.302,-0.06149254906529637
1.304,-0.0629386909178425
1.306,-0.05974312847850516
1.308,-0.05102803202780385
1.31,-0.04529394645147584
1.312,-0.047929656063337066
1.314,-0.05599636282511142
1.316,-0.06353383959099836
1.318,-0.06072807755504383
1.32,-0.05029918662819478
1.322,-0.04183567155144007
1.324,-0.0446696595875159
1.326,-0.05729525279388349
1.328,-0.06753437461420263
1.33,-0.0666440685552706
1.332,-0.054967985052816803
1.334,-0.045197275650149804
1.336,-0.04635382204388435
1.338,-0.055156979885265175
1.34,-0.06433184126941344
1.342,-0.06454405831447683
1.344,-0.057145221567805965
1.346,-0.05037514665414952
1.348,-0.04924912343509106
1.35,-0.05220148308976205
1.352,-0.055228646871869416
1.354,-0.053816304600856846
1.356,-0.05186218271673764
1.358,-0.05137739949445309
1.36,-0.05367661078204453
1.362,-0.054471988879118596
1.364,-0.054116856966863275
1.366,-0.05277091109145854
1.368,-0.053085441170109146
1.37,-0.05621687368528863
1.372,-0.05953444651734608
1.374,-0.062139833832526255
1.376,-0.06043476436583532
1.378,-0.055448038582485135
1.38,-0.05013891429087012
1.382,-0.04833750491065854
1.384,-0.050528284695558645
1.386,-0.052902348696485295
1.388,-0.05391988523120513
1.39,-0.050041794788938436
1.392,-0.04375102608713266
1.394,-0.042358706531657166
1.396,-0.04848943176856599
1.398,-0.0610629473648615
1.4,-0.06936715530372707
1.402,-0.0682112756106168
1.404,-0.06034345702048309
1.406,-0.05215095489743089
1.408,-0.05339628317435078
1.41,-0.06042755315384127
1.412,-0.06711069342510022
1.414,-0.06540055842111343
1.416,-0.05823113077891385
1.418,-0.052549652003315885
1.42,-0.05235417696718531
1.422,-0.05497223577084234
1.424,-0.0563825934428303
1.426,-0.05372603305239488
1.428,-0.052851281909112965
1.43,-0.05546881830559619
1.432,-0.05869177922388339
1.434,-0.057185899341686525
1.436,-0.050495544838877235
1.438,-0.04521467067748086
1.44,-0.049245618816633
1.442,-0.05928009023562261
1.444,-0.06774156889933904
1.446,-0.06436531409061441
1.448,-0.05239381942617814
1.45,-0.0420731252570334
1.452,-0.04353116678192459
1.454,-0.05459367818158813
1.456,-0.06302686681829055
1.458,-0.06057317319975269
1.46,-0.048364504414290584
1.462,-0.036875003290808
1.464,-0.03564166029158654
1.466,-0.04332702497866083
1.468,-0.05570112554708664
1.47,-0.0627580995167117
1.472,-0.061657453268702596
1.474,-0.05345218149744353
1.476,-0.04301000497878323
1.478,-0.036294147099132576
1.48,-0.03561954353923042
1.482,-0.04052396934788178
1.484,-0.04339630954987614
1.486,-0.03915539809526548
1.488,-0.027006311267494407
1.49,-0.015415564101434256
1.492,-0.011938197333458526
1.494,-0.01906776378718142
1.496,-0.02743104172391189
1.498,-0.0297444082453933
1.5,-0.02369221875769336
1.502,-0.012635363174490372
1.504,-0.005716538800319555
1.506,-0.005044030143876
1.508,-0.003987312697312902
1.51,0.0008176771024511567
1.512,0.009296954319807739
1.514,0.01894488776052831
1.516,0.02526866484841703
1.518,0.02923687081362047
1.52,0.0332102206518475
1.522,0.03347111878147725
1.524,0.02987085547045352
1.526,0.023866290561265432
1.528,0.02290941018074541
1.53,0.03110474153159325
1.532,0.04475732795472861
1.534,0.05487432143581768
1.536,0.05310945879146645
1.538,0.04170371329984117
1.54,0.03251785637352876
1.542,0.031060037997633773
1.544,0.03419581979079339
1.546,0.033017141095488284
1.548,0.02209287100869361
1.55,0.004970188443647658
1.552,-0.013003838362574457
1.554,-0.02562331027348094
1.556,-0.03462552684960322
1.558,-0.04271839859523577
1.56,-0.04906762319163373
1.562,-0.052684809505622196
1.564,-0.055835642995249714
1.566,-0.06169141902710391
1.568,-0.07079986754020005
1.57,-0.07739951037590641
1.572,-0.07729091182451785
1.574,-0.06789766998898915
1.576,-0.05827579831538691
1.578,-0.05776894689332286
1.58,-0.06749780459749492
1.582,-0.08180891552316208
1.584,-0.08852828150325896
1.586,-0.08554719193457624
1.588,-0.07824512650977357
1.59,-0.07311512856747301
1.592,-0.07552778052614383
1.594,-0.08006998467419014
1.596,-0.08336399830785461
1.598,-0.0827342415486557
1.6,-0.07643248660418916
1.602,-0.06962570781439334
1.604,-0.06709092056055949
1.606,-0.07320999887382884
1.608,-0.0865857438473495
1.61,-0.0997629703007427
1.612,-0.10206912366498767
1.614,-0.08920383857077165
1.616,-0.0687177669455858
1.618,-0.05546905552758736
1.62,-0.05977737133509834
1.622,-0.0756591655116343
1.624,-0.09175283090726723
1.626,-0.09586629139410077
1.628,-0.09275800826888936
1.63,-0.09431366609297342
1.632,-0.10720144278011086
1.634,-0.1264636678166883
1.636,-0.13764502055317404
1.638,-0.1319923103176766
1.64,-0.106232857146693
1.642,-0.06776981951025693
1.644,-0.01929351939848825
1.646,0.039457103955750056
1.648,0.11078627232077783
1.65,0.19659164941651114
1.652,0.297089049492848
1.654,0.4084039796290573
1.656,0.5206623865986
1.658,0.6184031624539905
1.66,0.6864795893020701
1.662,0.7129871903356935
1.664,0.7001568928775296
1.666,0.6560984237483015
1.668,0.5808865926621238
1.67,0.46722326740974257
1.672,0.310563646970666
1.674,0.11946323083240827
1.676,-0.07760165767331444
1.678,-0.24341328438604767
1.68,-0.35896527989695054
1.682,-0.42390715003861773
1.684,-0.4523846794204601
1.686,-0.4593073491143679
1.688,-0.4498708980145383
1.69,-0.4244992025840551
1.692,-0.3867960367522931
1.694,-0.346819240088053
1.696,-0.3155032709124937
1.698,-0.2975709703532092
1.7,-0.28834905779953907
1.702,-0.28408281806892344
1.704,-0.276688219400074
1.706,-0.26121781989937043
1.708,-0.2352730642651719
1.71,-0.20141462398139293
1.712,-0.16694106444028992
1.714,-0.13985699394519396
1.716,-0.12005910145124785
1.718,-0.10171243333948053
1.72,-0.08116724130158989
1.722,-0.06197850500119937
1.724,-0.05320592339301393
1.726,-0.05792358676794569
1.728,-0.07242474744709142
1.73,-0.08308777373823283
1.732,-0.08071379193389618
1.734,-0.06767397415571212
1.736,-0.05037232737952124
1.738,-0.03994182524082273
1.74,-0.038928379807694834
1.742,-0.04574831300247157
1.744,-0.05224338412931169
1.746,-0.05541897101621764
1.748,-0.0509177737557851
1.75,-0.04043389073955743
1.752,-0.030732988822413505
1.754,-0.02849340765441036
1.756,-0.035472161060226375
1.758,-0.0421530746293538
1.76,-0.03805122085537033
1.762,-0.022486775153442943
1.764,-0.007292056868458368
1.766,-0.007345228832947979
1.768,-0.023272031523695808
1.77,-0.04075738232338055
1.772,-0.04367662584659736
1.774,-0.028737571923411205
1.776,-0.010609591263169734
1.778,-0.006107208552950226
1.78,-0.013819981216037051
1.782,-0.02397261032771282
1.784,-0.02359141616978508
1.786,-0.01599417260539419
1.788,-0.011905005745747297
1.79,-0.013426092187093957
1.792,-0.016548985783347382
1.794,-0.011464390892812891
1.796,-0.002049499699454877
1.798,0.0028486642285541065
1.8,-0.0022433296489654886
1.802,-0.010566641114467501
1.804,-0.007048045529414683
1.806,0.008534936688779908
1.808,0.022919232597261963
1.81,0.020176156072537255
1.812,0.0037796814609901866
1.814,-0.008992598244290563
1.816,-0.00533769893038577
1.818,0.013470517171449824
1.82,0.029346170857013937
1.822,0.02991608941040405
1.824,0.019205057958389758
1.826,0.010748333974622909
1.828,0.013253709626160997
1.83,0.02293763281106789
1.832,0.031694089006037054
1.834,0.038214370175480794
1.836,0.04428805188619039
1.838,0.049775292875729786
1.84,0.04774884763923829
1.842,0.036809162286886576
1.844,0.02768482523605051
1.846,0.033206755151741506
1.848,0.05437495954028794
1.85,0.07415173488839921
1.852,0.07338217669871858
1.854,0.05414699461924181
1.856,0.03905139857314089
1.858,0.04690472978449842
1.86,0.07806737022560455
1.862,0.10711271123577715
1.864,0.11494380653569874
1.866,0.10219056000302172
1.868,0.08803238716319678
1.87,0.08936845198050505
1.872,0.103049429697669
1.874,0.11974896721332182
1.876,0.13069796521554275
1.878,0.13528795477388417
1.88,0.1375887379369176
1.882,0.1375007738014263
1.884,0.13544844367962264
1.886,0.13727342524285807
1.888,0.15301240261848723
1.89,0.17954072439267615
1.892,0.20243386324287985
1.894,0.20551534154508674
1.896,0.19041519985158906
1.898,0.17896757806801833
1.9,0.18898440117438925
1.902,0.2194986569374662
1.904,0.2477784887813229
1.906,0.2560622091623789
1.908,0.24458467109229554
1.91,0.23291963974198024
1.912,0.23274520126053705
1.914,0.24252591397099024
1.916,0.2534992008839531
1.918,0.2634354346369642
1.92,0.2752189298583753
1.922,0.2854780375769592
1.924,0.2823221341499452
1.926,0.26362163480600803
1.928,0.24514079270517083
1.93,0.2510298522083896
1.932,0.2841955517858395
1.934,0.31368654097188997
1.936,0.304962741098673
1.938,0.25837275411604804
1.94,0.21040570994044744
1.942,0.20012444716168162
1.944,0.22820858152182985
1.946,0.2532766904813613
1.948,0.24006054433245158
1.95,0.19723146180754014
1.952,0.15822676916799533
1.954,0.14678688910130783
1.956,0.14604633324774607
1.958,0.13251193974843165
1.96,0.10673772724145292
1.962,0.09671511817609538
1.964,0.11090230081972412
1.966,0.11716949335275305
1.968,0.07488827068232112
1.97,-0.0031177764173114897
1.972,-0.04675314837127677
1.974,-0.0012226409425544773
1.976,0.09660472591013208
1.978,0.1382193163998475
1.98,0.05461459458014581
1.982,-0.09725589921435421
1.984,-0.1734626765915081
1.986,-0.08956277617216213
1.988,0.0779056710518675
1.99,0.1568761438804245
1.992,0.0541342732664609
1.994,-0.14167083959285243
1.996,-0.24009992741444278
1.998,-0.14447711778523115
