1000
0.000943458
0.000127874
-0.000998932
-0.001190867
-0.000155201
0.000714087
-0.002105798
-0.002962176
-0.006436564
-0.001440493
-0.000626911
-0.000968423
0.002444378
0.002023583
0.003852794
0.003264941
-0.001253951
-0.000155142
0.000472234
-0.000188477
-0.001181043
0.000510691
0.000740483
0.000332585
0.000870606
0.002634899
0.001420792
0.000678556
0.001668599
-0.001653569
-0.000578806
-0.002913166
-0.003940925
-0.000764801
0.000578787
-0.001547289
-0.000357041
-0.001124062
-0.000570816
0.001079717
0.002003711
0.003632557
0.000227184
0.000615495
-0.001868691
-0.000973592
-0.000799675
-0.000642491
0.001709216
0.002474164
0.002489172
-0.000629453
-0.00116777
-0.00219107
-0.000510435
0.002672602
0.001466599
0.000288322
-0.000702287
-0.00063711
-0.001310251
0.001682481
0.000184114
-0.001957281
0.000552564
0.001761433
-0.001968431
-0.001672584
-0.004053645
0.00020196
0.000666618
0.000751189
0.002137593
0.000466942
-0.000348912
-0.001026875
-0.000990029
-0.001534389
0.001127243
0.000538825
-0.000256368
-0.000181439
-0.000705629
-0.00113425
0.002208027
0.000552518
-0.000546673
0.00134138
0.000986557
0.000527827
-0.002222054
-0.000365173
0.002226374
0.002152909
-0.000592752
-0.000966749
0.00094496
-0.000121251
-0.001601655
-0.00016485
0.003103825
-0.000247538
-0.003639201
0.000353891
0.003544321
0.003216201
9.46E-05
-0.002078035
-0.001361203
-0.000299204
-0.000732268
-0.001821148
0.000241387
-0.000540975
-0.000745956
-0.000906756
-0.002649498
-0.00023804
-0.001310894
0.000315505
0.001819912
0.001136977
0.000106604
0.000421547
0.000826492
0.000858757
0.002199813
0.001964167
0.000706725
-0.00094577
-0.000841635
-0.001184424
-0.000127759
0.002969521
0.001687422
-0.000736858
-0.003345294
-0.003122373
0.000499391
-0.002371256
-0.001939801
-0.000518783
-0.000205941
0.001090659
0.001423412
0.002123528
0.001794567
0.001051007
0.000708061
-3.15E-05
0.000676356
0.000522198
0.001417284
-0.000801641
0.00044746
-0.000576719
-0.004520919
-0.000240691
-4.38E-05
-0.000910008
-0.001622014
-0.00086811
-0.001993025
0.000483993
0.002255922
0.000169376
-0.000990348
0.002032553
0.000406985
0.001840549
-0.000523253
0.001190075
0.00113333
-0.000846628
0.001192732
-0.001096686
-0.000786649
0.000516014
-0.001053865
-0.001468549
-0.000173181
2.95E-05
0.000346073
0.000753507
-0.000242797
-0.000189044
-0.001762564
-0.000253995
0.00101263
0.00235313
0.000640927
8.25E-05
0.003003778
0.002900288
-0.000176112
-0.000538258
0.000198068
0.000811637
-0.00089726
-0.000988434
-0.000460895
0.000134814
-0.001431842
-0.001985739
0.000674446
-0.001972044
-0.001506098
-0.003599781
-0.002794843
0.001014656
-0.000674578
-0.003110711
0.000348192
-0.000298414
0.000638454
0.000676598
0.000403956
0.000906788
0.001609388
0.001732116
0.003578414
0.004040552
0.002895039
0.003515356
0.002952038
0.000816414
0.002259199
-0.00054511
-0.001558444
-0.002678986
-0.002104403
-0.000561175
-0.001324505
-0.000617878
-0.003112482
-0.003681958
-0.00322105
-0.003230685
-0.001570691
-0.000895156
-0.000169255
0.000883069
0.00086694
0.002462136
-0.000807065
0.001331488
0.001481298
0.001437869
-0.000977513
0.000404439
-0.001244831
-0.000396729
2.43E-05
0.001702837
-1.17E-05
0.002532566
0.001088588
-0.00087299
0.001034752
0.002027339
-0.000560959
0.00258623
0.001351466
0.001182489
0.000876508
-0.001013612
-0.002581301
-0.001645539
-0.001133072
-0.000982404
-0.002905457
-0.002115115
5.11E-05
0.000389925
0.003615713
0.000663192
0.000982145
-0.001418032
-0.002817324
-0.001884551
-0.00107635
0.000500177
4.41E-05
-4.35E-05
0.000915411
-6.37E-05
-0.000440274
0.00116686
0.00087416
2.69E-05
0.001085855
0.001367109
0.000698442
0.00366582
0.001233172
0.002126483
0.001222282
-0.002205375
-0.001210931
-0.001392569
-0.001524459
0.00148234
0.000146036
0.001088612
0.000388078
-0.001088342
-0.003045543
-0.0018396
-0.000508582
0.000465702
-0.000936199
-0.000475024
-0.002882411
-0.00249788
-0.001550223
-0.000587017
0.001996512
0.002509213
0.000543891
-0.001109319
-0.000266478
-0.000293943
0.000571646
0.001435406
-0.000957394
-0.000735926
0.002113114
0.001962084
0.002101994
0.000125253
0.00141629
0.00070796
-0.000632233
-0.000271188
3.50E-05
0.000585605
0.001480238
-0.001771689
-0.000194249
0.000687008
0.000383117
0.000860091
0.000510009
0.000504313
-0.002455505
0.000260713
0.000467483
0.001518138
-0.000277234
-0.001039335
-0.000630586
-0.002784834
-0.002189794
-0.000186043
-0.002190523
-0.001183935
0.000707624
0.000217531
0.000541019
-0.000669873
-5.26E-05
0.001349171
0.001766266
0.002826798
0.000873349
0.001288725
-0.000593006
-0.000243733
-0.002600766
-0.00217816
-0.000761097
0.000141494
0.001042463
-0.001166107
0.000391717
0.002132385
0.000168844
-0.000740506
-0.001785844
0.000754794
0.000660027
-0.000902743
-0.000576729
0.001178431
0.001451649
-0.000698842
0.002522094
0.002086936
0.001692396
0.0022219
0.000127421
0.00028815
0.001892406
-0.001655732
-0.003570471
-0.002026601
-0.001589065
-0.001494523
-0.001246335
-0.001167889
-5.36E-05
-0.000741195
-0.000127014
-0.001969187
-0.001419473
-0.000349151
0.000257187
0.000761077
0.000140188
-8.69E-05
0.00222989
0.001631549
0.000222671
0.002135088
0.002820876
0.001143332
0.002080554
0.001655942
0.001423862
0.002535427
-0.000402788
-0.000203804
-0.000771201
-0.002561528
-0.003286313
-0.005319353
-0.002080541
-0.002434057
-0.003431688
-0.001564204
0.000316654
0.001444525
0.000157024
0.000845524
0.000230576
0.00089151
0.001137143
0.002358019
0.001429921
0.003579962
0.003117268
0.001210879
-0.000550045
-0.000984579
0.000581934
-0.001062784
-0.000950444
0.001810343
-0.000178831
-0.000220281
-0.000693953
-0.001080449
-0.00109359
-0.002415233
-0.000686344
0.001802704
-0.001003403
-0.001716829
-0.001994451
-0.001018881
-0.001366488
0.000867879
0.003757588
0.002732459
-0.001850024
-0.000501042
0.00107772
0.001941657
0.000278606
-0.001707255
-0.000249918
-0.001237049
0.001049594
-0.00044118
-0.000356353
0.001783245
0.001043062
0.000408284
-0.000718604
0.000853978
0.001568595
-0.001098382
-0.001251794
0.002175198
-0.00058801
-0.000829379
0.000601825
0.000759575
-0.001477559
-0.000676072
-0.000584837
0.000826501
-0.000362121
-0.000467645
-0.001433536
-0.002221395
-0.002406633
-0.001200363
0.00262725
0.000635046
-0.000894603
-9.88E-05
-0.000315491
-0.001818801
0.00033891
0.001108685
-0.001800226
-0.002293401
0.001011625
0.003616491
0.002502327
0.001385932
0.002347262
0.002086356
0.002722028
0.003509543
0.002791509
-6.09E-05
-0.000531901
-0.001508089
-0.003040425
-0.002657963
0.000353701
0.000364305
-0.001548128
-0.00180027
-0.00139573
-0.000299901
-0.000262472
-0.002732917
-0.003877213
-0.00212606
-0.001366163
-0.000415426
0.000681307
0.000263116
0.000203978
0.001920159
0.001413065
0.002441936
0.002530976
0.00065282
0.0014292
0.001321531
0.000770086
-0.000587053
0.001085636
0.003207189
-7.43E-05
-0.0010518
-0.002444447
-0.002690611
9.00E-05
5.84E-05
-0.001000585
-0.002020062
0.00157733
-0.000445014
-0.001689475
-0.00270684
-0.001308538
0.000175825
0.000826411
0.000769549
0.00056341
-0.001238587
-0.00081321
-3.15E-06
0.002591098
0.000598576
0.001427384
0.001363633
0.004090863
0.00513569
0.001219611
-0.000160494
0.000897241
0.00118021
-0.001547735
-0.001893065
-0.001712583
-0.002715774
-0.001747639
-0.001353978
-0.001741734
-0.001893736
-0.00022491
-0.001182735
0.000538107
0.001676194
0.001278213
-0.00098952
0.001253151
0.0010491
-0.000610798
-0.000517713
-0.001316608
-0.002408516
-0.000487394
-0.001082812
0.001382145
-0.000111554
-0.001949984
0.000666006
-0.000543488
0.001694337
-0.000436196
0.002208094
0.001294728
0.00139564
0.001607291
0.000729487
-0.001195059
-0.001462458
-0.000486035
0.001959708
-0.001179701
-0.002464383
0.001064809
0.000614052
0.000522566
-0.001477628
-0.000477778
-0.000370737
-0.000717915
-0.000113843
0.001425235
0.002398301
0.000967383
-0.000391956
0.001570838
0.001275264
0.001746277
0.002999625
0.000468158
-0.00018405
0.001041246
-1.15E-05
0.000728652
-0.002346971
-0.002529632
-0.002351132
-0.001872861
0.00017593
0.000267332
-0.00172344
-0.003512499
-0.003927671
-0.003039249
0.000401519
0.002391927
0.000928479
0.000721566
0.000980051
-0.000586393
0.001058446
-0.000674989
0.000389172
0.000979656
-0.001340551
-0.000757983
-0.000701448
-0.000349183
0.000540335
0.001719356
0.000618083
0.0004241
0.002908525
0.003914596
0.001310245
-0.000594277
0.000620258
0.000743736
0.001278496
0.000823343
0.000135596
0.000294798
-0.001050063
0.000344838
-0.000261019
-0.000322288
-0.000368912
-0.002760796
-0.002807208
-0.002952784
-0.001263236
-0.000862186
0.000222991
0.000243928
0.000700083
0.000482278
0.001029885
-0.000442622
-0.000784642
0.00056165
-0.002888397
-0.000576319
0.002104595
4.43E-05
-0.002418136
-0.001054699
0.002018059
-0.000302497
-0.000472196
0.001013835
0.001653677
0.002607547
0.004105269
0.002057146
-0.001898115
-0.000318112
0.002630505
0.000934084
0.002595471
-0.002241508
0.00022657
-0.001247775
-0.001137509
-0.001323491
-0.000870471
-0.003426344
8.43E-05
0.001106047
-0.000412762
0.000385119
1.58E-05
-0.001472711
-0.001518435
-0.003450749
-0.003986748
-0.001577364
-0.000126971
0.00167866
0.002134273
0.001747849
0.004346765
0.003217041
0.002077266
-8.61E-05
0.001788654
-0.000205021
0.000487076
-0.000267054
-0.000747142
-0.00261211
-0.000745682
-0.000940986
-0.000796085
-0.000958018
-0.002111417
0.000933019
0.001994378
-0.001125418
-0.000183658
-0.000424284
-0.000177423
0.000179202
-0.000998706
0.001272156
0.000354495
0.001644531
0.001668992
0.000338807
0.001136325
0.001787531
-0.000346155
-0.000506165
-0.00063279
-0.003972148
-0.002730801
0.000264026
0.003651738
0.002160739
0.000439039
-0.001450859
8.31E-05
0.000334391
0.000245148
-0.001601762
-0.001061337
0.00058557
0.000924137
-0.000574455
-0.002999824
-0.002628646
-0.000658563
0.00070552
-0.000668297
-0.000482266
0.001596496
0.001839798
0.000542961
-0.001140141
0.00129938
0.001406845
0.000149948
-0.000609702
0.0006792
0.001453631
0.001933525
-0.00019831
-0.001095846
-6.27E-05
-0.002881587
-0.002104611
0.000492382
0.003691114
0.002336107
0.000725717
-0.002106858
-0.001499972
0.000208929
-0.001605956
0.000435214
0.00051648
0.000871806
0.000419713
-0.000112238
-0.000555951
0.00084928
-0.000197398
-0.001660346
-0.000650239
-0.000679498
0.001074495
-0.000715177
0.000597259
-0.000818227
-0.000664909
0.000210015
0.002560701
0.001543813
-0.001688067
0.00019972
0.001040311
0.000255096
0.001657453
0.000154501
7.31E-05
0.000446085
-0.00160633
0.000972924
-0.000271771
-0.000720321
-0.001674952
-0.001860339
7.48E-05
-0.004054267
-0.001851625
0.000903533
0.002312689
0.001395485
0.000754789
-8.73E-05
0.000388084
0.000190894
2.30E-05
-0.001002132
0.000807096
0.004373476
0.00140034
-0.001256389
-0.00095677
-0.000986849
-0.001292509
-0.001529677
-0.000821747
-0.001838435
-0.002368181
0.002528571
0.002317183
-0.000398937
-0.001487946
0.001748751
0.001190604
0.000411311
-0.001573543
-0.000412073
-2.33E-05
0.002660721
0.002216213
4.33E-05
-0.000597302
-0.003630555
-0.004790859
-0.001566
0.001009092
5.52E-05
0.000582236
0.00352064
0.002244935
0.001291804
0.001506857
-0.000545742
-0.000782363
0.000799523
0.00034362
0.000546517
0.002182333
-0.000311873
0.000552285
0.000383419
0.002299913
0.002249789
-0.000625122
-0.003022889
-0.001596558
-0.002590139
-0.001026229
0.000592688
-0.001303088
-0.001986996
0.001596074
-0.000438531
-0.004051545
5.70E-05
-0.001073259
-0.001709156
-0.001479821
-0.002887647
0.000544582
0.001346672
-0.000359538
0.003228428
0.003237694
0.001724676
0.001317343
7.29E-05
-0.001854259
-0.00137738
0.001105229
0.001104192
0.001824264
0.002548055
0.000464116
0.001955276
0.002438386
0.001038867
-0.000147835
-0.003349986
-0.002002784
-0.001140692
-0.002171085
-0.001086227
-0.003552172
-0.001585703
8.36E-05
0.000890278
0.001847524
0.002622148
-0.001041565
0.001064882
0.001044287
0.000127595
0.001569116
-0.000636706
-0.000263347
-0.000389125
0.000248149
-0.000990578
0.001229251
0.001448584
0.001169059
0.001065497
-0.001836995
0.000181319
-0.002111066
-0.000462334
0.000187717
0.00161353
0.000867787
-0.004043334
-0.003379871
-0.0001225
-0.001815329
0.000183669
-0.000798436
-0.001019521
-0.000305517
0.002065306
0.002693711
0.00096997
0.000986706
0.00216552
0.001204997
0.000678182
-0.001836102
-0.003472254
0.000219455
0.002717358
0.001968834
-0.000160209
0.001154846
0.001944282
-0.001402437
0.000827232
0.001060627
-0.002886184
-0.000105697
-0.000134588
-0.000746373
-0.000952962
-0.002291207
-0.001314948
-0.000773367
0.000575561
-7.21E-05
-0.000465924
-0.000199307
0.001500659
0.00393381
0.002376519
0.00133313
-0.002507432
-0.002591225
-0.001886901
-0.00171208
-0.001688308
-0.001643949
-0.000993448
-0.000434468
0.002103213
0.000659953
0.000915993
0.002590948
0.001450072
0.001653043
-0.001443499
-0.000919825
0.000711008
0.00059214
0.003284404
0.000332186
-0.001996781
0.000651379
0.000500739
0.001251695
0.000388377
0.001133869
-0.002385286
-0.001464837
-0.001852131
0.000356048
-0.001779917
-0.000889354
0.001195578
0.002039401
0.000505483
-0.000491234
7.93E-06
-0.001195545
-0.002627918
-0.000546487
-0.002480713
-0.000968944
0.001047654
0.001394251
-0.001725687
0.001582845
0.002855884
0.000490373
-0.00120232
-9.64E-05
0.001272993
-0.00010459
0.002133543
0.001470776
-0.001168807
-0.001593039
-0.000303861
0.000927204
0.003123494
0.004032615
0.000166293
-0.001156896
-0.000921402
-0.000416128
-0.002492676
-0.00168943
-0.002613753
-0.000549358
-0.001760869
-0.00039142
-0.00145008
0.000779767
0.001898322
-0.001761747
0.001242506
-0.000387229
-0.001451229
-0.001731418
0.001449
0.002469338
-0.00069168
0.000209285
0.001844849
0.002155676
2.65E-05
-0.000282571
0.001526218
7.07E-05
0.001651408
0.002066543
0.000468115
-0.000287292
0.000410942
-0.00122127
-0.000948777
3.00E-05
-0.000477451
0.000578483
-0.000756695
-0.002747843
-0.002016794
-0.001522943
-0.001529599
0.00040302
-0.000195672
-0.000104503
0.00026811
0.001607882
0.000348026
0.001204289
-0.000601891
-0.001515724
0.000541546
0.001961235
0.000173618
0.001180124
0.00023701
0.00253915
0.001334544
0.002222771
-0.000160954
-0.003628104
-0.00073008
-0.001241074
-0.002093051
-0.002039054
-0.000490437
7.62E-05
0.000549484
0.00064297
0.000122371
0.000274311
-0.00122372
-0.000838858
0.001116753
0.000821743
-0.000911009
-0.000137633
0.002133076
-0.000713219
-0.001317106
0.00084938
0.001324333
-0.000950199
0.000549274
2.80E-05
-0.001882674
-0.001096788
0.000756127
0.002591174
0.002910807
0.001072809
0.000550239
0.001726042
-0.000114959
-0.002538869
-0.00202576
-0.003335494
-0.001435915
0.000912114
0.002422467
0.000998844
0.000529478
0.001013187
-0.000807347
0.000333201
-0.000780201
0.000215015
-0.000723569
-0.000909303
-0.000609463
9.25E-05
8.94E-05
0.0014119
-6.94E-06
-0.000457727
-0.000386327
-0.001057892
-0.002931272
-0.000772488
0.002519869
0.000965437
0.000239658
0.001839384
0.000204256
0.000453657
0.001687588
0.000632745
-0.000554291
8.12E-05
0.000759493
-0.000452329
-0.000870743
-0.00106103
-0.000762803
-0.000354695
0.001023815
-0.000489923
-0.001307938
0.00023699
-0.002894673
-0.002231991
-0.000465775
-0.002959837
-0.002204585
0.001259991
0.002520959
0.000739741
0.001301242
0.000573372
0.001282192
0.001267479
0.001531574
0.003793902
0.004306437
0.00231494
0.000171998
-0.001034977
-0.001588279
-0.000996774
-0.000487137
-0.000495583
-0.001527184
-0.001631762
-0.00243261
0.001206403
0.001435086
0.00027926
0.002255322
0.001076616
-0.000662708
-0.002109237
-0.000489332
-0.002073832
-0.002780755
-0.001268874
-0.001606031
-0.001865027
-0.001023125
-0.001482576
-7.71E-05
0.001100662
0.001039005
0.003477917
0.00104773
-0.001149342
0.000712638
0.001818968
-0.000671088
0.000938684
0.002420144
0.001414528
0.001289088
0.000281075
-0.00145121
-0.001406553
-2.23E-05
0.000694723
0.00187449
-0.000112729
-0.000448275
0.000898565
-0.001376807
-0.002082664
0.000156932
-0.00121291
0.001342534
-0.00095916
-0.003019587
-0.002637375
0.001405492
0.000642905
-0.001478705
-0.000580487
-0.001293978
-0.000251295
0.001509584
0.004140988
0.003336218
-3.88E-05
0.002147385
-0.000475087
-0.000747657
-0.002586275
-0.001729872
0.000191252
0.002386359
0.001536522
0.000655409
0.001971682
0.001129046
0.000112476
0.001175825
-0.002077832
-0.003592536
-0.001566057
-0.000878549
0.000299296
-0.000340228
0.001045336
0.001305838
-0.001442735
-0.002985953
-0.001876456
-0.000183486
-0.001858635
8.40E-06
0.000981785
0.000308587
0.000624851
-0.00074069
0.000485029
-0.000117107
-0.00047212
0.001890477
0.001924981
0.000304721
0.001744211
0.002039735
-0.000837538
0.000303088
-7.29E-05
-0.000828733
-0.001596904
0.001762585
0.001454423
0.001175366
0.001514265
-0.001761243
-0.001235406
-0.001514224
-0.000693998
0.001034443
0.000403057
-0.000278755
0.000923129
-0.000147469
-0.001483779
7.20E-05
-0.002606117
-0.001567874
-0.000675962
0.000227909
0.000833925
0.002066125
0.001741284
0.001738883
0.000679971
0.000962717
-0.001172715
-0.003385633
-0.000178036
-0.000585246
-0.001212451
-0.000983035
-3.98E-05
0.00045567
0.000274314
0.000560674
-0.000239423
0.000273316
0.003204194
0.000305515
-6.22E-05
7.30E-05
-0.000404414
-0.000650848
0.000626142
0.001538756
-0.001256803
-0.002989439
-0.001596306
-0.001143811
0.001167612
0.00043281
0.000253538
0.000394556
-0.000524812
0.004166439
0.002874958
-0.002079961
-0.002218543
-0.001712873
0.001093473
0.001805795
0.004439398
0.002305662
-0.000545774
-0.001893328
-0.001078013
-0.003032799
-0.001530245
-0.002755747
0.00023766
-6.01E-05
-0.000603307
-0.000754545
-0.000428066
0.001472716
-0.00049461
-0.000955358
0.000441399
-0.001048625
7.73E-05
0.002197954
0.000109386
-0.000314226
0.000956946
-5.61E-05
0.002191674
0.001978329
0.001034125
-0.000950424
-0.00068205
-0.001921363
0.000458846
0.001855317
0.001523668
0.000339622
-0.000509173
-0.000328069
-0.000908636
-0.000349802
0.002186531
0.000593548
0.000577818
0.001145827
-0.000311279
-0.000494922
-0.001231043
-0.001976864
-0.004341259
-0.003752215
-0.0011413
-0.000412828
-0.000828694
0.000898576
0.000415564
0.001479047
0.002200561
0.0007093
0.000334892
-0.00086773
5.41E-05
0.001709306
0.001596413
0.000741839
-0.000868664
-0.001172654
-8.37E-05
0.000829208
0.00393964
0.000148916
-0.002879378
-0.00109867
0.001439732
-0.000435475
0.002717335
0.002517087
0.000396946
-0.001383747
-0.001527981
0.000289438
-0.001140988
-0.002321986
-0.001655799
0.000252393
-0.000511956
0.000771596
0.000803273
0.000228608
-0.001582288
0.000756652
-0.00157042
-0.001727205
0.000819527
0.001613248
-0.000103828
0.000670978
-0.002522155
-0.00044246
0.000715484
0.000790205
0.001725636
0.000567729
-0.000704648
-0.000285779
0.000363805
0.000165418
0.003386841
-0.000155568
0.000713112
0.00216696
0.00040496
-0.000486473
-0.000341393
0.000521947
-0.00097365
-0.001327308
0.000311877
0.001827042
0.001153009
-0.003407436
-0.002606991
-0.002930818
-0.001685589
-0.001650398
-0.001891803
-0.003392981
-0.000621133
0.000381922
0.000773966
0.000943579
0.001219293
0.001285066
0.0014689
0.003222782
0.001549281
-2.16E-05
0.00220094
0.000934573
0.00059779
-0.000282367
-0.001457289
-0.000651155
3.32E-05
-0.001752621
0.0007572
0.000783986
0.000942441
0.001503605
0.001067296
0.002455211
0.000781223
0.000842346
0.000144378
-0.000589427
-0.001932152
0.0008038
-0.00237068
-0.00307792
-0.002004161
-0.002697455
-0.00014366
0.000669928
0.000899181
0.00063592
0.000701085
-0.001465324
-0.000604805
0.000271754
-0.001651312
0.001036882
0.002977593
-0.001483688
-0.000185934
-0.000718043
0.000320759
0.001775327
0.002083023
0.000983959
-9.78E-05
-0.003065429
-0.000936465
0.003070239
-0.000841872
-0.000862305
0.000754339
0.000770352
0.001951695
0.002322871
-0.001674265
-0.002638146
-0.001932999
-0.002493757
-0.001453216
-0.000413654
0.000462641
1.05E-05
0.001989944
0.001112722
-0.001701211
-0.003148017
-0.001513295
0.001645832
-0.000302249
-0.000160122
0.002171991
0.003945541
0.005373167
0.001921507
0.001656973
0.000821958
-0.000773333
-0.002097677
6.65E-05
0.001140432
-0.001072153
0.000333561
-0.000410467
-0.001322181
-0.001624136
-0.000969076
-0.002322666
-0.001064024
0.000299876
-0.00092083
-0.002224218
-0.001809297
3.82E-05
-0.001068723
0.000820462
0.000916295
-0.001669718
0.001200671
0.001817669
0.001276166
0.000656955
0.001013368
0.001444458
0.000752723
0.000457485
0.000940625
0.001036701
0.001839051
-0.001790107
-0.00155992
-0.002671098
-0.002088789
-0.002013192
0.001027004
0.000167418
0.000771847
-0.001091512
0.000312074
-0.000728199
-0.001441159
0.00166752
0.000855988
0.001195898
0.000578816
-0.000683114
-0.002024457
0.000861376
0.001790993
0.001658982
0.001377045
0.002005386
0.001765435
0.001391589
0.001353228
0.000859346
-0.000745668
-0.001636393
0.00044197
0.001291212
-0.001406428
-0.002170597
-0.00071548
-0.001255564
-0.004489879
-0.004626963
-0.001579567
0.000257604
0.001054982
0.000675539
-0.000536234
-0.002132488
0.00127844
0.000872968
0.00096303
0.00131925
-0.001349383
0.000710262
0.002129495
0.001370769
-0.002232024
-0.002415526
-0.001502446
-0.000716268
0.002900026
0.002937766
0.004253287
0.003966517
0.002047717
-0.000472655
-0.001101945
0.000597996
-0.00255651
-0.002802174
-0.001198599
0.001487732
-0.001443423
-0.000781292
-0.000952586
-0.0021139
-0.001139474
0.001608838
0.000938625
0.000953485
-0.000374372
-0.000596282
0.000258286
0.003033394
-0.000877541
-0.000306926
-0.000266932
0.001244289
0.002491429
0.000846451
-0.003195927
-0.00093312
-0.001383416
-0.00041387
0.002319845
-0.001025859
-0.002485475
1.32E-05
-0.000253255
0.001148562
-0.001084407
0.002220454
-5.61E-05
0.001281325
0.002382439
0.000174626
-0.001528857
0.000899233
0.001150313
0.000606912
-0.001920226
-0.00047079
-0.000282238
-0.001594169
-0.001342915
0.000508143
-1.30E-05
-0.000596428
-0.000781478
0.000106633
-0.00077266
-0.000908046
-0.000123911
-0.001823847
-0.001894097
0.000580113
0.00220091
0.001757282
0.00121304
-0.000439259
0.00024725
-0.002718892
0.000585397
0.000395463
-0.000211437
0.002526058
0.002717824
0.000628187
0.001964812
-0.000187172
-0.000954352
0.000333238
-0.001099225
-0.001103435
-0.003154394
-0.001583206
-0.001423997
-0.000533146
-0.000516554
-0.00049518
0.002772405
0.002962222
0.001456962
0.00061784
0.004622782
0.00201319
0.001125808
0.003019567
0.002497824
0.000993135
-0.000575725
-0.002470354
-0.001809908
-0.002852034
-0.004272715
-0.0040737
-0.002668977
-0.002633401
0.001266598
0.001712901
0.001030013
-0.001325256
-0.002835684
-0.000521815
-0.000787934
-0.004683989
-0.001245416
-0.001885956
0.000847635
0.001060447
0.001960183
0.001211157
0.002777348
0.002869202
0.002609761
0.002502143
0.000754539
0.001049193
0.000691124
0.001707827
0.001649929
0.000988007
-0.002233425
-0.000918539
-0.001130919
-0.000702788
0.001287076
-0.000160822
0.000397999
0.002776102
0.000894723
0.000485803
-0.000453124
-0.001527387
0.001869615
0.001738695
-0.001933389
-0.006748228
-0.003312005
-0.002008541
-0.002067304
-0.002823488
-0.001941776
-0.00029117
0.001684454
0.000218878
0.000757399
0.00104988
0.004079886
0.003904479
0.002374583
2.77E-05
-0.00134797
-0.001006234
-0.001442497
-0.002965929
-0.002282318
0.000386472
0.00128865
0.000404011
0.000541877
0.002123317
0.00135309
0.000688668
0.000711999
0.000573829
0.001039391
0.001119319
0.00058047
-0.000321215
-0.000187113
0.000664801
-0.000105494
-0.001043618
-0.001961266
0.000983587
0.000634359
0.000627577
0.001644517
0.000113862
-0.000137513
0.000538355
-0.001409201
-0.002134922
-0.000942908
-0.002584285
-0.000236299
-0.000920153
-0.002363657
-0.001032309
-0.001376645
-0.000908038
-0.001829059
-0.001394526
0.002674138
0.004272964
0.0028966
0.000523275
0.000444823
0.001109636
0.000618421
0.002261646
0.000656816
0.000482864
3.55E-05
-0.001371312
-0.004003047
-0.003642714
-0.001077471
0.0012331
0.000644021
-0.00059541
0.00132333
0.000404911
7.23E-05
0.00082455
-0.00091584
-0.001475272
-0.0001536
-7.66E-05
0.00116806
0.000129729
0.001911547
0.003522948
0.000988881
3.22E-05
0.001588972
-0.000373245
-0.000536698
-0.000370989
-0.000669047
-2.46E-05
0.000515347
0.001402044
-0.00052891
-0.001695645
-0.000142269
-1.88E-05
0.000379528
-0.001208492
-0.00178351
-0.001502132
-0.001686967
-0.001375108
0.000379767
0.000222156
0.000381763
-0.000964019
0.00013409
-0.000127634
0.001128977
0.000543375
-0.001281237
-0.001463724
0.000615514
0.000726039
0.002281921
0.001193225
0.001590988
0.000132293
0.000972604
0.000777685
-0.000281088
-0.001016013
0.002068119
0.002409329
0.000596661
-0.000487354
0.000233448
-0.002261623
-0.001075169
-0.003161446
-0.003388368
-0.000139352
-0.000512448
-0.002586019
-0.002073703
-0.000288277
-0.000263246
0.001235394
-0.001212547
0.001472036
0.000160903
0.00245082
0.002711134
0.002595014
0.001428497
0.00072599
0.003222478
0.000696806
0.001077848
-0.000534799
3.89E-05
0.000518633
-0.000855906
-0.00169947
