178
1.00E+00
6.07E-01
3.84E-01
2.54E-01
2.24E-01
2.77E-01
2.53E-01
1.85E-01
1.53E-01
1.22E-01
1.25E-01
1.29E-01
1.37E-01
1.37E-01
1.32E-01
1.27E-01
1.58E-01
1.53E-01
1.32E-01
1.69E-01
1.57E-01
1.83E-01
1.91E-01
2.04E-01
2.30E-01
2.45E-01
2.86E-01
3.08E-01
3.21E-01
3.28E-01
3.52E-01
3.74E-01
3.97E-01
3.63E-01
3.41E-01
3.08E-01
2.58E-01
1.98E-01
1.99E-01
1.74E-01
1.48E-01
1.36E-01
1.34E-01
1.06E-01
1.22E-01
1.36E-01
1.07E-01
1.49E-01
1.36E-01
1.35E-01
1.51E-01
1.65E-01
9.44E-02
1.07E-01
1.21E-01
1.41E-01
1.23E-01
1.36E-01
1.32E-01
1.51E-01
1.17E-01
1.33E-01
1.04E-01
1.37E-01
1.19E-01
1.15E-01
9.69E-02
9.12E-02
1.29E-01
1.00E-01
8.64E-02
1.14E-01
4.12E-02
9.36E-02
8.15E-02
7.43E-02
8.07E-02
7.99E-02
7.83E-02
5.33E-02
7.51E-02
7.59E-02
8.07E-02
1.04E-01
8.39E-02
7.67E-02
1.19E-01
1.13E-01
7.99E-02
1.18E-01
9.36E-02
1.18E-01
8.64E-02
1.38E-01
9.93E-02
8.31E-02
6.94E-02
7.83E-02
5.33E-02
9.60E-02
1.40E-01
1.11E-01
1.62E-01
1.23E-01
1.38E-01
6.46E-02
8.80E-02
6.13E-02
3.79E-02
3.95E-02
7.18E-02
4.60E-02
4.52E-02
0.00E+00
1.61E-02
6.54E-02
1.57E-01
2.25E-01
4.61E-01
9.51E-01
6.07E-01
3.35E-01
2.25E-01
2.12E-01
2.48E-01
2.16E-01
1.17E-01
8.07E-02
1.03E-01
6.78E-02
1.31E-01
8.15E-02
7.99E-02
6.94E-02
1.13E-01
1.13E-01
1.35E-01
1.36E-01
1.57E-01
1.34E-01
1.32E-01
1.63E-01
1.98E-01
2.20E-01
2.01E-01
2.53E-01
0.00E+00
0.00E+00
0.00E+00
0.00E+00
0.00E+00
0.00E+00
0.00E+00
0.00E+00
0.00E+00
0.00E+00
0.00E+00
0.00E+00
0.00E+00
0.00E+00
0.00E+00
0.00E+00
0.00E+00
0.00E+00
0.00E+00
0.00E+00
0.00E+00
0.00E+00
0.00E+00
0.00E+00
0.00E+00
0.00E+00
0.00E+00
0.00E+00
0.00E+00
0.00E+00
0.00E+00
0.00E+00
0.00E+00
0.00E+00
0.00E+00
0.00E+00
0.00E+00
0.00E+00
0.00E+00
0.00E+00
0.00E+00
1.00E+00
1.00E+00
6.07E-01
3.84E-01
2.54E-01
2.24E-01
2.77E-01
2.53E-01
1.85E-01
1.53E-01
1.22E-01
1.25E-01
1.29E-01
1.37E-01
1.37E-01
1.32E-01
1.27E-01
1.58E-01
1.53E-01
1.32E-01
1.69E-01
1.57E-01
1.83E-01
1.91E-01
2.04E-01
2.30E-01
2.45E-01
2.86E-01
3.08E-01
3.21E-01
3.28E-01
3.52E-01
3.74E-01
3.97E-01
3.63E-01
3.41E-01
3.08E-01
2.58E-01
1.98E-01
1.99E-01
1.74E-01
1.48E-01
1.36E-01
1.34E-01
1.06E-01
1.22E-01
1.36E-01
1.07E-01
1.49E-01
1.36E-01
1.35E-01
1.51E-01
1.65E-01
9.44E-02
1.07E-01
1.21E-01
1.41E-01
1.23E-01
1.36E-01
1.32E-01
1.51E-01
1.17E-01
1.33E-01
1.04E-01
1.37E-01
1.19E-01
1.15E-01
9.69E-02
9.12E-02
1.29E-01
1.00E-01
8.64E-02
1.14E-01
4.12E-02
9.36E-02
8.15E-02
7.43E-02
8.07E-02
7.99E-02
7.83E-02
5.33E-02
7.51E-02
7.59E-02
8.07E-02
1.04E-01
8.39E-02
7.67E-02
1.19E-01
1.13E-01
7.99E-02
1.18E-01
9.36E-02
1.18E-01
8.64E-02
1.38E-01
9.93E-02
8.31E-02
6.94E-02
7.83E-02
5.33E-02
9.60E-02
1.40E-01
1.11E-01
1.62E-01
1.23E-01
1.38E-01
6.46E-02
8.80E-02
6.13E-02
3.79E-02
3.95E-02
7.18E-02
4.60E-02
4.52E-02
0.00E+00
1.61E-02
6.54E-02
1.57E-01
2.25E-01
4.61E-01
9.51E-01
6.07E-01
3.35E-01
2.25E-01
2.12E-01
2.48E-01
2.16E-01
1.17E-01
8.07E-02
1.03E-01
6.78E-02
1.31E-01
8.15E-02
7.99E-02
6.94E-02
1.13E-01
1.13E-01
1.35E-01
1.36E-01
1.57E-01
1.34E-01
1.32E-01
1.63E-01
1.98E-01
2.20E-01
2.01E-01
2.53E-01
0.00E+00
0.00E+00
0.00E+00
0.00E+00
0.00E+00
0.00E+00
0.00E+00
0.00E+00
0.00E+00
0.00E+00
0.00E+00
0.00E+00
0.00E+00
0.00E+00
0.00E+00
0.00E+00
0.00E+00
0.00E+00
0.00E+00
0.00E+00
0.00E+00
0.00E+00
0.00E+00
0.00E+00
0.00E+00
0.00E+00
0.00E+00
0.00E+00
0.00E+00
0.00E+00
0.00E+00
0.00E+00
0.00E+00
0.00E+00
0.00E+00
0.00E+00
0.00E+00
0.00E+00
0.00E+00
0.00E+00
0.00E+00
1.00E+00
1.00E+00
6.07E-01
3.84E-01
2.54E-01
2.24E-01
2.77E-01
2.53E-01
1.85E-01
1.53E-01
1.22E-01
1.25E-01
1.29E-01
1.37E-01
1.37E-01
1.32E-01
1.27E-01
1.58E-01
1.53E-01
1.32E-01
1.69E-01
1.57E-01
1.83E-01
1.91E-01
2.04E-01
2.30E-01
2.45E-01
2.86E-01
3.08E-01
3.21E-01
3.28E-01
3.52E-01
3.74E-01
3.97E-01
3.63E-01
3.41E-01
3.08E-01
2.58E-01
1.98E-01
1.99E-01
1.74E-01
1.48E-01
1.36E-01
1.34E-01
1.06E-01
1.22E-01
1.36E-01
1.07E-01
1.49E-01
1.36E-01
1.35E-01
1.51E-01
1.65E-01
9.44E-02
1.07E-01
1.21E-01
1.41E-01
1.23E-01
1.36E-01
1.32E-01
1.51E-01
1.17E-01
1.33E-01
1.04E-01
1.37E-01
1.19E-01
1.15E-01
9.69E-02
9.12E-02
1.29E-01
1.00E-01
8.64E-02
1.14E-01
4.12E-02
9.36E-02
8.15E-02
7.43E-02
8.07E-02
7.99E-02
7.83E-02
5.33E-02
7.51E-02
7.59E-02
8.07E-02
1.04E-01
8.39E-02
7.67E-02
1.19E-01
1.13E-01
7.99E-02
1.18E-01
9.36E-02
1.18E-01
8.64E-02
1.38E-01
9.93E-02
8.31E-02
6.94E-02
7.83E-02
5.33E-02
9.60E-02
1.40E-01
1.11E-01
1.62E-01
1.23E-01
1.38E-01
6.46E-02
8.80E-02
6.13E-02
3.79E-02
3.95E-02
7.18E-02
4.60E-02
4.52E-02
0.00E+00
1.61E-02
6.54E-02
1.57E-01
2.25E-01
4.61E-01
9.51E-01
6.07E-01
3.35E-01
2.25E-01
2.12E-01
2.48E-01
2.16E-01
1.17E-01
8.07E-02
1.03E-01
6.78E-02
1.31E-01
8.15E-02
7.99E-02
6.94E-02
1.13E-01
1.13E-01
1.35E-01
1.36E-01
1.57E-01
1.34E-01
1.32E-01
1.63E-01
1.98E-01
2.20E-01
2.01E-01
2.53E-01
0.00E+00
0.00E+00
0.00E+00
0.00E+00
0.00E+00
0.00E+00
0.00E+00
0.00E+00
0.00E+00
0.00E+00
0.00E+00
0.00E+00
0.00E+00
0.00E+00
0.00E+00
0.00E+00
0.00E+00
0.00E+00
0.00E+00
0.00E+00
0.00E+00
0.00E+00
0.00E+00
0.00E+00
0.00E+00
0.00E+00
0.00E+00
0.00E+00
0.00E+00
0.00E+00
0.00E+00
0.00E+00
0.00E+00
0.00E+00
0.00E+00
0.00E+00
0.00E+00
0.00E+00
0.00E+00
0.00E+00
0.00E+00
1.00E+00
1.00E+00
6.07E-01
3.84E-01
2.54E-01
2.24E-01
2.77E-01
2.53E-01
1.85E-01
1.53E-01
1.22E-01
1.25E-01
1.29E-01
1.37E-01
1.37E-01
1.32E-01
1.27E-01
1.58E-01
1.53E-01
1.32E-01
1.69E-01
1.57E-01
1.83E-01
1.91E-01
2.04E-01
2.30E-01
2.45E-01
2.86E-01
3.08E-01
3.21E-01
3.28E-01
3.52E-01
3.74E-01
3.97E-01
3.63E-01
3.41E-01
3.08E-01
2.58E-01
1.98E-01
1.99E-01
1.74E-01
1.48E-01
1.36E-01
1.34E-01
1.06E-01
1.22E-01
1.36E-01
1.07E-01
1.49E-01
1.36E-01
1.35E-01
1.51E-01
1.65E-01
9.44E-02
1.07E-01
1.21E-01
1.41E-01
1.23E-01
1.36E-01
1.32E-01
1.51E-01
1.17E-01
1.33E-01
1.04E-01
1.37E-01
1.19E-01
1.15E-01
9.69E-02
9.12E-02
1.29E-01
1.00E-01
8.64E-02
1.14E-01
4.12E-02
9.36E-02
8.15E-02
7.43E-02
8.07E-02
7.99E-02
7.83E-02
5.33E-02
7.51E-02
7.59E-02
8.07E-02
1.04E-01
8.39E-02
7.67E-02
1.19E-01
1.13E-01
7.99E-02
1.18E-01
9.36E-02
1.18E-01
8.64E-02
1.38E-01
9.93E-02
8.31E-02
6.94E-02
7.83E-02
5.33E-02
9.60E-02
1.40E-01
1.11E-01
1.62E-01
1.23E-01
1.38E-01
6.46E-02
8.80E-02
6.13E-02
3.79E-02
3.95E-02
7.18E-02
4.60E-02
4.52E-02
0.00E+00
1.61E-02
6.54E-02
1.57E-01
2.25E-01
4.61E-01
9.51E-01
6.07E-01
3.35E-01
2.25E-01
2.12E-01
2.48E-01
2.16E-01
1.17E-01
8.07E-02
1.03E-01
6.78E-02
1.31E-01
8.15E-02
7.99E-02
6.94E-02
1.13E-01
1.13E-01
1.35E-01
1.36E-01
1.57E-01
1.34E-01
1.32E-01
1.63E-01
1.98E-01
2.20E-01
2.01E-01
2.53E-01
0.00E+00
0.00E+00
0.00E+00
0.00E+00
0.00E+00
0.00E+00
0.00E+00
0.00E+00
0.00E+00
0.00E+00
0.00E+00
0.00E+00
0.00E+00
0.00E+00
0.00E+00
0.00E+00
0.00E+00
0.00E+00
0.00E+00
0.00E+00
0.00E+00
0.00E+00
0.00E+00
0.00E+00
0.00E+00
0.00E+00
0.00E+00
0.00E+00
0.00E+00
0.00E+00
0.00E+00
0.00E+00
0.00E+00
0.00E+00
0.00E+00
0.00E+00
0.00E+00
0.00E+00
0.00E+00
0.00E+00
0.00E+00
1.00E+00
1.00E+00
6.07E-01
3.84E-01
2.54E-01
2.24E-01
2.77E-01
2.53E-01
1.85E-01
1.53E-01
1.22E-01
1.25E-01
1.29E-01
1.37E-01
1.37E-01
1.32E-01
1.27E-01
1.58E-01
1.53E-01
1.32E-01
1.69E-01
1.57E-01
1.83E-01
1.91E-01
2.04E-01
2.30E-01
2.45E-01
2.86E-01
3.08E-01
3.21E-01
3.28E-01
3.52E-01
3.74E-01
3.97E-01
3.63E-01
3.41E-01
3.08E-01
2.58E-01
1.98E-01
1.99E-01
1.74E-01
1.48E-01
1.36E-01
1.34E-01
1.06E-01
1.22E-01
1.36E-01
1.07E-01
1.49E-01
1.36E-01
1.35E-01
1.51E-01
1.65E-01
9.44E-02
1.07E-01
1.21E-01
1.41E-01
1.23E-01
1.36E-01
1.32E-01
1.51E-01
1.17E-01
1.33E-01
1.04E-01
1.37E-01
1.19E-01
1.15E-01
9.69E-02
9.12E-02
1.29E-01
1.00E-01
8.64E-02
1.14E-01
4.12E-02
9.36E-02
8.15E-02
7.43E-02
8.07E-02
7.99E-02
7.83E-02
5.33E-02
7.51E-02
7.59E-02
8.07E-02
1.04E-01
8.39E-02
7.67E-02
1.19E-01
1.13E-01
7.99E-02
1.18E-01
9.36E-02
1.18E-01
8.64E-02
1.38E-01
9.93E-02
8.31E-02
6.94E-02
7.83E-02
5.33E-02
9.60E-02
1.40E-01
1.11E-01
1.62E-01
1.23E-01
1.38E-01
6.46E-02
8.80E-02
6.13E-02
3.79E-02
3.95E-02
7.18E-02
4.60E-02
4.52E-02
0.00E+00
1.61E-02
6.54E-02
1.57E-01
2.25E-01
4.61E-01
9.51E-01
6.07E-01
3.35E-01
2.25E-01
2.12E-01
2.48E-01
2.16E-01
1.17E-01
8.07E-02
1.03E-01
6.78E-02
1.31E-01
8.15E-02
7.99E-02
6.94E-02
1.13E-01
1.13E-01
1.35E-01
1.36E-01
1.57E-01
1.34E-01
1.32E-01
1.63E-01
1.98E-01
2.20E-01
2.01E-01
2.53E-01
0.00E+00
0.00E+00
0.00E+00
0.00E+00
0.00E+00
0.00E+00
0.00E+00
0.00E+00
0.00E+00
0.00E+00
0.00E+00
0.00E+00
0.00E+00
0.00E+00
0.00E+00
0.00E+00
0.00E+00
0.00E+00
0.00E+00
0.00E+00
0.00E+00
0.00E+00
0.00E+00
0.00E+00
0.00E+00
0.00E+00
0.00E+00
0.00E+00
0.00E+00
0.00E+00
0.00E+00
0.00E+00
0.00E+00
0.00E+00
0.00E+00
0.00E+00
0.00E+00
0.00E+00
0.00E+00
0.00E+00
0.00E+00
1.00E+00
1.00E+00
6.07E-01
3.84E-01
2.54E-01
2.24E-01
2.77E-01
2.53E-01
1.85E-01
1.53E-01
1.22E-01
1.25E-01
1.29E-01
1.37E-01
1.37E-01
1.32E-01
1.27E-01
1.58E-01
1.53E-01
1.32E-01
1.69E-01
1.57E-01
1.83E-01
1.91E-01
2.04E-01
2.30E-01
2.45E-01
2.86E-01
3.08E-01
3.21E-01
3.28E-01
3.52E-01
3.74E-01
3.97E-01
3.63E-01
3.41E-01
3.08E-01
2.58E-01
1.98E-01
1.99E-01
1.74E-01
1.48E-01
1.36E-01
1.34E-01
1.06E-01
1.22E-01
1.36E-01
1.07E-01
1.49E-01
1.36E-01
1.35E-01
1.51E-01
1.65E-01
9.44E-02
1.07E-01
1.21E-01
1.41E-01
1.23E-01
1.36E-01
1.32E-01
1.51E-01
1.17E-01
1.33E-01
1.04E-01
1.37E-01
1.19E-01
1.15E-01
9.69E-02
9.12E-02
1.29E-01
1.00E-01
8.64E-02
1.14E-01
4.12E-02
9.36E-02
8.15E-02
7.43E-02
8.07E-02
7.99E-02
7.83E-02
5.33E-02
7.51E-02
7.59E-02
8.07E-02
1.04E-01
8.39E-02
7.67E-02
1.19E-01
1.13E-01
7.99E-02
1.18E-01
9.36E-02
1.18E-01
8.64E-02
1.38E-01
9.93E-02
8.31E-02
6.94E-02
7.83E-02
5.33E-02
9.60E-02
1.40E-01
1.11E-01
1.62E-01
1.23E-01
1.38E-01
6.46E-02
8.80E-02
6.13E-02
3.79E-02
3.95E-02
7.18E-02
4.60E-02
4.52E-02
0.00E+00
1.61E-02
6.54E-02
1.57E-01
2.25E-01
4.61E-01
9.51E-01
6.07E-01
3.35E-01
2.25E-01
2.12E-01
2.48E-01
2.16E-01
1.17E-01
8.07E-02
1.03E-01
6.78E-02
1.31E-01
8.15E-02
7.99E-02
6.94E-02
1.13E-01
1.13E-01
1.35E-01
1.36E-01
1.57E-01
1.34E-01
1.32E-01
1.63E-01
1.98E-01
2.20E-01
2.01E-01
2.53E-01
0.00E+00
0.00E+00
0.00E+00
0.00E+00
0.00E+00
0.00E+00
0.00E+00
0.00E+00
0.00E+00
0.00E+00
0.00E+00
0.00E+00
0.00E+00
0.00E+00
0.00E+00
0.00E+00
0.00E+00
0.00E+00
0.00E+00
0.00E+00
0.00E+00
0.00E+00
0.00E+00
0.00E+00
0.00E+00
0.00E+00
0.00E+00
0.00E+00
0.00E+00
0.00E+00
0.00E+00
0.00E+00
0.00E+00
0.00E+00
0.00E+00
0.00E+00
0.00E+00
0.00E+00
0.00E+00
0.00E+00
0.00E+00
1.00E+00
1.00E+00
6.07E-01
3.84E-01
2.54E-01
2.24E-01
2.77E-01
2.53E-01
1.85E-01
1.53E-01
1.22E-01
1.25E-01
1.29E-01
1.37E-01
1.37E-01
1.32E-01
1.27E-01
1.58E-01
1.53E-01
1.32E-01
1.69E-01
1.57E-01
1.83E-01
1.91E-01
2.04E-01
2.30E-01
2.45E-01
2.86E-01
3.08E-01
3.21E-01
3.28E-01
3.52E-01
3.74E-01
3.97E-01
3.63E-01
3.41E-01
3.08E-01
2.58E-01
1.98E-01
1.99E-01
1.74E-01
1.48E-01
1.36E-01
1.34E-01
1.06E-01
1.22E-01
1.36E-01
1.07E-01
1.49E-01
1.36E-01
1.35E-01
1.51E-01
1.65E-01
9.44E-02
1.07E-01
1.21E-01
1.41E-01
1.23E-01
1.36E-01
1.32E-01
1.51E-01
1.17E-01
1.33E-01
1.04E-01
1.37E-01
1.19E-01
1.15E-01
9.69E-02
9.12E-02
1.29E-01
1.00E-01
8.64E-02
1.14E-01
4.12E-02
9.36E-02
8.15E-02
7.43E-02
8.07E-02
7.99E-02
7.83E-02
5.33E-02
7.51E-02
7.59E-02
8.07E-02
1.04E-01
8.39E-02
7.67E-02
1.19E-01
1.13E-01
7.99E-02
1.18E-01
9.36E-02
1.18E-01
8.64E-02
1.38E-01
9.93E-02
8.31E-02
6.94E-02
7.83E-02
5.33E-02
9.60E-02
1.40E-01
1.11E-01
1.62E-01
1.23E-01
1.38E-01
6.46E-02
8.80E-02
6.13E-02
3.79E-02
3.95E-02
7.18E-02
4.60E-02
4.52E-02
0.00E+00
1.61E-02
6.54E-02
1.57E-01
2.25E-01
4.61E-01
9.51E-01
6.07E-01
3.35E-01
2.25E-01
2.12E-01
2.48E-01
2.16E-01
1.17E-01
8.07E-02
1.03E-01
6.78E-02
1.31E-01
8.15E-02
7.99E-02
6.94E-02
1.13E-01
1.13E-01
1.35E-01
1.36E-01
1.57E-01
1.34E-01
1.32E-01
1.63E-01
1.98E-01
2.20E-01
2.01E-01
2.53E-01
0.00E+00
0.00E+00
0.00E+00
0.00E+00
0.00E+00
0.00E+00
0.00E+00
0.00E+00
0.00E+00
0.00E+00
0.00E+00
0.00E+00
0.00E+00
0.00E+00
0.00E+00
0.00E+00
0.00E+00
0.00E+00
0.00E+00
0.00E+00
0.00E+00
0.00E+00
0.00E+00
0.00E+00
0.00E+00
0.00E+00
0.00E+00
0.00E+00
0.00E+00
0.00E+00
0.00E+00
0.00E+00
0.00E+00
0.00E+00
0.00E+00
0.00E+00
0.00E+00
0.00E+00
0.00E+00
0.00E+00
0.00E+00
1.00E+00
