1.78E+02
8.70E-01
8.86E-01
9.30E-01
9.09E-01
9.34E-01
8.01E-01
7.50E-01
6.87E-01
6.35E-01
6.50E-01
6.35E-01
6.55E-01
6.65E-01
6.33E-01
7.46E-01
8.71E-01
9.38E-01
1.00E+00
9.49E-01
3.96E-01
0.00E+00
3.91E-02
1.29E-01
3.06E-01
6.40E-01
6.18E-01
5.38E-01
3.53E-01
2.21E-01
2.56E-01
3.58E-01
4.82E-01
5.71E-01
5.78E-01
6.20E-01
6.22E-01
6.19E-01
6.26E-01
6.13E-01
6.22E-01
5.98E-01
6.19E-01
6.31E-01
6.23E-01
6.28E-01
6.06E-01
6.45E-01
6.72E-01
6.23E-01
6.73E-01
6.70E-01
6.87E-01
7.25E-01
7.19E-01
7.51E-01
7.28E-01
7.39E-01
7.48E-01
7.44E-01
7.89E-01
7.39E-01
0.00E+00
0.00E+00
0.00E+00
0.00E+00
0.00E+00
0.00E+00
0.00E+00
0.00E+00
0.00E+00
0.00E+00
0.00E+00
0.00E+00
0.00E+00
0.00E+00
0.00E+00
0.00E+00
0.00E+00
0.00E+00
0.00E+00
0.00E+00
0.00E+00
0.00E+00
0.00E+00
0.00E+00
0.00E+00
0.00E+00
0.00E+00
0.00E+00
0.00E+00
0.00E+00
0.00E+00
0.00E+00
0.00E+00
0.00E+00
0.00E+00
0.00E+00
0.00E+00
0.00E+00
0.00E+00
0.00E+00
0.00E+00
0.00E+00
0.00E+00
0.00E+00
0.00E+00
0.00E+00
0.00E+00
0.00E+00
0.00E+00
0.00E+00
0.00E+00
0.00E+00
0.00E+00
0.00E+00
0.00E+00
0.00E+00
0.00E+00
0.00E+00
0.00E+00
0.00E+00
0.00E+00
0.00E+00
0.00E+00
0.00E+00
0.00E+00
0.00E+00
0.00E+00
0.00E+00
0.00E+00
0.00E+00
0.00E+00
0.00E+00
0.00E+00
0.00E+00
0.00E+00
0.00E+00
0.00E+00
0.00E+00
0.00E+00
0.00E+00
0.00E+00
0.00E+00
0.00E+00
0.00E+00
0.00E+00
0.00E+00
0.00E+00
0.00E+00
0.00E+00
0.00E+00
0.00E+00
0.00E+00
0.00E+00
0.00E+00
0.00E+00
0.00E+00
0.00E+00
0.00E+00
0.00E+00
0.00E+00
0.00E+00
0.00E+00
0.00E+00
0.00E+00
0.00E+00
0.00E+00
0.00E+00
0.00E+00
0.00E+00
0.00E+00
0.00E+00
0.00E+00
0.00E+00
0.00E+00
0.00E+00
0.00E+00
0.00E+00
0.00E+00
0.00E+00
0.00E+00
0.00E+00
0.00E+00
0.00E+00
0.00E+00
0.00E+00
1.00E+00
8.86E-01
9.30E-01
9.09E-01
9.34E-01
8.01E-01
7.50E-01
6.87E-01
6.35E-01
6.50E-01
6.35E-01
6.55E-01
6.65E-01
6.33E-01
7.46E-01
8.71E-01
9.38E-01
1.00E+00
9.49E-01
3.96E-01
0.00E+00
3.91E-02
1.29E-01
3.06E-01
6.40E-01
6.18E-01
5.38E-01
3.53E-01
2.21E-01
2.56E-01
3.58E-01
4.82E-01
5.71E-01
5.78E-01
6.20E-01
6.22E-01
6.19E-01
6.26E-01
6.13E-01
6.22E-01
5.98E-01
6.19E-01
6.31E-01
6.23E-01
6.28E-01
6.06E-01
6.45E-01
6.72E-01
6.23E-01
6.73E-01
6.70E-01
6.87E-01
7.25E-01
7.19E-01
7.51E-01
7.28E-01
7.39E-01
7.48E-01
7.44E-01
7.89E-01
7.39E-01
0.00E+00
0.00E+00
0.00E+00
0.00E+00
0.00E+00
0.00E+00
0.00E+00
0.00E+00
0.00E+00
0.00E+00
0.00E+00
0.00E+00
0.00E+00
0.00E+00
0.00E+00
0.00E+00
0.00E+00
0.00E+00
0.00E+00
0.00E+00
0.00E+00
0.00E+00
0.00E+00
0.00E+00
0.00E+00
0.00E+00
0.00E+00
0.00E+00
0.00E+00
0.00E+00
0.00E+00
0.00E+00
0.00E+00
0.00E+00
0.00E+00
0.00E+00
0.00E+00
0.00E+00
0.00E+00
0.00E+00
0.00E+00
0.00E+00
0.00E+00
0.00E+00
0.00E+00
0.00E+00
0.00E+00
0.00E+00
0.00E+00
0.00E+00
0.00E+00
0.00E+00
0.00E+00
0.00E+00
0.00E+00
0.00E+00
0.00E+00
0.00E+00
0.00E+00
0.00E+00
0.00E+00
0.00E+00
0.00E+00
0.00E+00
0.00E+00
0.00E+00
0.00E+00
0.00E+00
0.00E+00
0.00E+00
0.00E+00
0.00E+00
0.00E+00
0.00E+00
0.00E+00
0.00E+00
0.00E+00
0.00E+00
0.00E+00
0.00E+00
0.00E+00
0.00E+00
0.00E+00
0.00E+00
0.00E+00
0.00E+00
0.00E+00
0.00E+00
0.00E+00
0.00E+00
0.00E+00
0.00E+00
0.00E+00
0.00E+00
0.00E+00
0.00E+00
0.00E+00
0.00E+00
0.00E+00
0.00E+00
0.00E+00
0.00E+00
0.00E+00
0.00E+00
0.00E+00
0.00E+00
0.00E+00
0.00E+00
0.00E+00
0.00E+00
0.00E+00
0.00E+00
0.00E+00
0.00E+00
0.00E+00
0.00E+00
0.00E+00
0.00E+00
0.00E+00
0.00E+00
0.00E+00
0.00E+00
0.00E+00
0.00E+00
0.00E+00
1.00E+00
8.86E-01
9.30E-01
9.09E-01
9.34E-01
8.01E-01
7.50E-01
6.87E-01
6.35E-01
6.50E-01
6.35E-01
6.55E-01
6.65E-01
6.33E-01
7.46E-01
8.71E-01
9.38E-01
1.00E+00
9.49E-01
3.96E-01
0.00E+00
3.91E-02
1.29E-01
3.06E-01
6.40E-01
6.18E-01
5.38E-01
3.53E-01
2.21E-01
2.56E-01
3.58E-01
4.82E-01
5.71E-01
5.78E-01
6.20E-01
6.22E-01
6.19E-01
6.26E-01
6.13E-01
6.22E-01
5.98E-01
6.19E-01
6.31E-01
6.23E-01
6.28E-01
6.06E-01
6.45E-01
6.72E-01
6.23E-01
6.73E-01
6.70E-01
6.87E-01
7.25E-01
7.19E-01
7.51E-01
7.28E-01
7.39E-01
7.48E-01
7.44E-01
7.89E-01
7.39E-01
0.00E+00
0.00E+00
0.00E+00
0.00E+00
0.00E+00
0.00E+00
0.00E+00
0.00E+00
0.00E+00
0.00E+00
0.00E+00
0.00E+00
0.00E+00
0.00E+00
0.00E+00
0.00E+00
0.00E+00
0.00E+00
0.00E+00
0.00E+00
0.00E+00
0.00E+00
0.00E+00
0.00E+00
0.00E+00
0.00E+00
0.00E+00
0.00E+00
0.00E+00
0.00E+00
0.00E+00
0.00E+00
0.00E+00
0.00E+00
0.00E+00
0.00E+00
0.00E+00
0.00E+00
0.00E+00
0.00E+00
0.00E+00
0.00E+00
0.00E+00
0.00E+00
0.00E+00
0.00E+00
0.00E+00
0.00E+00
0.00E+00
0.00E+00
0.00E+00
0.00E+00
0.00E+00
0.00E+00
0.00E+00
0.00E+00
0.00E+00
0.00E+00
0.00E+00
0.00E+00
0.00E+00
0.00E+00
0.00E+00
0.00E+00
0.00E+00
0.00E+00
0.00E+00
0.00E+00
0.00E+00
0.00E+00
0.00E+00
0.00E+00
0.00E+00
0.00E+00
0.00E+00
0.00E+00
0.00E+00
0.00E+00
0.00E+00
0.00E+00
0.00E+00
0.00E+00
0.00E+00
0.00E+00
0.00E+00
0.00E+00
0.00E+00
0.00E+00
0.00E+00
0.00E+00
0.00E+00
0.00E+00
0.00E+00
0.00E+00
0.00E+00
0.00E+00
0.00E+00
0.00E+00
0.00E+00
0.00E+00
0.00E+00
0.00E+00
0.00E+00
0.00E+00
0.00E+00
0.00E+00
0.00E+00
0.00E+00
0.00E+00
0.00E+00
0.00E+00
0.00E+00
0.00E+00
0.00E+00
0.00E+00
0.00E+00
0.00E+00
0.00E+00
0.00E+00
0.00E+00
0.00E+00
0.00E+00
0.00E+00
0.00E+00
0.00E+00
1.00E+00
8.86E-01
9.30E-01
9.09E-01
9.34E-01
8.01E-01
7.50E-01
6.87E-01
6.35E-01
6.50E-01
6.35E-01
6.55E-01
6.65E-01
6.33E-01
7.46E-01
8.71E-01
9.38E-01
1.00E+00
9.49E-01
3.96E-01
0.00E+00
3.91E-02
1.29E-01
3.06E-01
6.40E-01
6.18E-01
5.38E-01
3.53E-01
2.21E-01
2.56E-01
3.58E-01
4.82E-01
5.71E-01
5.78E-01
6.20E-01
6.22E-01
6.19E-01
6.26E-01
6.13E-01
6.22E-01
5.98E-01
6.19E-01
6.31E-01
6.23E-01
6.28E-01
6.06E-01
6.45E-01
6.72E-01
6.23E-01
6.73E-01
6.70E-01
6.87E-01
7.25E-01
7.19E-01
7.51E-01
7.28E-01
7.39E-01
7.48E-01
7.44E-01
7.89E-01
7.39E-01
0.00E+00
0.00E+00
0.00E+00
0.00E+00
0.00E+00
0.00E+00
0.00E+00
0.00E+00
0.00E+00
0.00E+00
0.00E+00
0.00E+00
0.00E+00
0.00E+00
0.00E+00
0.00E+00
0.00E+00
0.00E+00
0.00E+00
0.00E+00
0.00E+00
0.00E+00
0.00E+00
0.00E+00
0.00E+00
0.00E+00
0.00E+00
0.00E+00
0.00E+00
0.00E+00
0.00E+00
0.00E+00
0.00E+00
0.00E+00
0.00E+00
0.00E+00
0.00E+00
0.00E+00
0.00E+00
0.00E+00
0.00E+00
0.00E+00
0.00E+00
0.00E+00
0.00E+00
0.00E+00
0.00E+00
0.00E+00
0.00E+00
0.00E+00
0.00E+00
0.00E+00
0.00E+00
0.00E+00
0.00E+00
0.00E+00
0.00E+00
0.00E+00
0.00E+00
0.00E+00
0.00E+00
0.00E+00
0.00E+00
0.00E+00
0.00E+00
0.00E+00
0.00E+00
0.00E+00
0.00E+00
0.00E+00
0.00E+00
0.00E+00
0.00E+00
0.00E+00
0.00E+00
0.00E+00
0.00E+00
0.00E+00
0.00E+00
0.00E+00
0.00E+00
0.00E+00
0.00E+00
0.00E+00
0.00E+00
0.00E+00
0.00E+00
0.00E+00
0.00E+00
0.00E+00
0.00E+00
0.00E+00
0.00E+00
0.00E+00
0.00E+00
0.00E+00
0.00E+00
0.00E+00
0.00E+00
0.00E+00
0.00E+00
0.00E+00
0.00E+00
0.00E+00
0.00E+00
0.00E+00
0.00E+00
0.00E+00
0.00E+00
0.00E+00
0.00E+00
0.00E+00
0.00E+00
0.00E+00
0.00E+00
0.00E+00
0.00E+00
0.00E+00
0.00E+00
0.00E+00
0.00E+00
0.00E+00
0.00E+00
0.00E+00
0.00E+00
1.00E+00
8.86E-01
9.30E-01
9.09E-01
9.34E-01
8.01E-01
7.50E-01
6.87E-01
6.35E-01
6.50E-01
6.35E-01
6.55E-01
6.65E-01
6.33E-01
7.46E-01
8.71E-01
9.38E-01
1.00E+00
9.49E-01
3.96E-01
0.00E+00
3.91E-02
1.29E-01
3.06E-01
6.40E-01
6.18E-01
5.38E-01
3.53E-01
2.21E-01
2.56E-01
3.58E-01
4.82E-01
5.71E-01
5.78E-01
6.20E-01
6.22E-01
6.19E-01
6.26E-01
6.13E-01
6.22E-01
5.98E-01
6.19E-01
6.31E-01
6.23E-01
6.28E-01
6.06E-01
6.45E-01
6.72E-01
6.23E-01
6.73E-01
6.70E-01
6.87E-01
7.25E-01
7.19E-01
7.51E-01
7.28E-01
7.39E-01
7.48E-01
7.44E-01
7.89E-01
7.39E-01
0.00E+00
0.00E+00
0.00E+00
0.00E+00
0.00E+00
0.00E+00
0.00E+00
0.00E+00
0.00E+00
0.00E+00
0.00E+00
0.00E+00
0.00E+00
0.00E+00
0.00E+00
0.00E+00
0.00E+00
0.00E+00
0.00E+00
0.00E+00
0.00E+00
0.00E+00
0.00E+00
0.00E+00
0.00E+00
0.00E+00
0.00E+00
0.00E+00
0.00E+00
0.00E+00
0.00E+00
0.00E+00
0.00E+00
0.00E+00
0.00E+00
0.00E+00
0.00E+00
0.00E+00
0.00E+00
0.00E+00
0.00E+00
0.00E+00
0.00E+00
0.00E+00
0.00E+00
0.00E+00
0.00E+00
0.00E+00
0.00E+00
0.00E+00
0.00E+00
0.00E+00
0.00E+00
0.00E+00
0.00E+00
0.00E+00
0.00E+00
0.00E+00
0.00E+00
0.00E+00
0.00E+00
0.00E+00
0.00E+00
0.00E+00
0.00E+00
0.00E+00
0.00E+00
0.00E+00
0.00E+00
0.00E+00
0.00E+00
0.00E+00
0.00E+00
0.00E+00
0.00E+00
0.00E+00
0.00E+00
0.00E+00
0.00E+00
0.00E+00
0.00E+00
0.00E+00
0.00E+00
0.00E+00
0.00E+00
0.00E+00
0.00E+00
0.00E+00
0.00E+00
0.00E+00
0.00E+00
0.00E+00
0.00E+00
0.00E+00
0.00E+00
0.00E+00
0.00E+00
0.00E+00
0.00E+00
0.00E+00
0.00E+00
0.00E+00
0.00E+00
0.00E+00
0.00E+00
0.00E+00
0.00E+00
0.00E+00
0.00E+00
0.00E+00
0.00E+00
0.00E+00
0.00E+00
0.00E+00
0.00E+00
0.00E+00
0.00E+00
0.00E+00
0.00E+00
0.00E+00
0.00E+00
0.00E+00
0.00E+00
0.00E+00
0.00E+00
1.00E+00
8.86E-01
9.30E-01
9.09E-01
9.34E-01
8.01E-01
7.50E-01
6.87E-01
6.35E-01
6.50E-01
6.35E-01
6.55E-01
6.65E-01
6.33E-01
7.46E-01
8.71E-01
9.38E-01
1.00E+00
9.49E-01
3.96E-01
0.00E+00
3.91E-02
1.29E-01
3.06E-01
6.40E-01
6.18E-01
5.38E-01
3.53E-01
2.21E-01
2.56E-01
3.58E-01
4.82E-01
5.71E-01
5.78E-01
6.20E-01
6.22E-01
6.19E-01
6.26E-01
6.13E-01
6.22E-01
5.98E-01
6.19E-01
6.31E-01
6.23E-01
6.28E-01
6.06E-01
6.45E-01
6.72E-01
6.23E-01
6.73E-01
6.70E-01
6.87E-01
7.25E-01
7.19E-01
7.51E-01
7.28E-01
7.39E-01
7.48E-01
7.44E-01
7.89E-01
7.39E-01
0.00E+00
0.00E+00
0.00E+00
0.00E+00
0.00E+00
0.00E+00
0.00E+00
0.00E+00
0.00E+00
0.00E+00
0.00E+00
0.00E+00
0.00E+00
0.00E+00
0.00E+00
0.00E+00
0.00E+00
0.00E+00
0.00E+00
0.00E+00
0.00E+00
0.00E+00
0.00E+00
0.00E+00
0.00E+00
0.00E+00
0.00E+00
0.00E+00
0.00E+00
0.00E+00
0.00E+00
0.00E+00
0.00E+00
0.00E+00
0.00E+00
0.00E+00
0.00E+00
0.00E+00
0.00E+00
0.00E+00
0.00E+00
0.00E+00
0.00E+00
0.00E+00
0.00E+00
0.00E+00
0.00E+00
0.00E+00
0.00E+00
0.00E+00
0.00E+00
0.00E+00
0.00E+00
0.00E+00
0.00E+00
0.00E+00
0.00E+00
0.00E+00
0.00E+00
0.00E+00
0.00E+00
0.00E+00
0.00E+00
0.00E+00
0.00E+00
0.00E+00
0.00E+00
0.00E+00
0.00E+00
0.00E+00
0.00E+00
0.00E+00
0.00E+00
0.00E+00
0.00E+00
0.00E+00
0.00E+00
0.00E+00
0.00E+00
0.00E+00
0.00E+00
0.00E+00
0.00E+00
0.00E+00
0.00E+00
0.00E+00
0.00E+00
0.00E+00
0.00E+00
0.00E+00
0.00E+00
0.00E+00
0.00E+00
0.00E+00
0.00E+00
0.00E+00
0.00E+00
0.00E+00
0.00E+00
0.00E+00
0.00E+00
0.00E+00
0.00E+00
0.00E+00
0.00E+00
0.00E+00
0.00E+00
0.00E+00
0.00E+00
0.00E+00
0.00E+00
0.00E+00
0.00E+00
0.00E+00
0.00E+00
0.00E+00
0.00E+00
0.00E+00
0.00E+00
0.00E+00
0.00E+00
0.00E+00
0.00E+00
0.00E+00
0.00E+00
1.00E+00
8.86E-01
9.30E-01
9.09E-01
9.34E-01
8.01E-01
7.50E-01
6.87E-01
6.35E-01
6.50E-01
6.35E-01
6.55E-01
6.65E-01
6.33E-01
7.46E-01
8.71E-01
9.38E-01
1.00E+00
9.49E-01
3.96E-01
0.00E+00
3.91E-02
1.29E-01
3.06E-01
6.40E-01
6.18E-01
5.38E-01
3.53E-01
2.21E-01
2.56E-01
3.58E-01
4.82E-01
5.71E-01
5.78E-01
6.20E-01
6.22E-01
6.19E-01
6.26E-01
6.13E-01
6.22E-01
5.98E-01
6.19E-01
6.31E-01
6.23E-01
6.28E-01
6.06E-01
6.45E-01
6.72E-01
6.23E-01
6.73E-01
6.70E-01
6.87E-01
7.25E-01
7.19E-01
7.51E-01
7.28E-01
7.39E-01
7.48E-01
7.44E-01
7.89E-01
7.39E-01
0.00E+00
0.00E+00
0.00E+00
0.00E+00
0.00E+00
0.00E+00
0.00E+00
0.00E+00
0.00E+00
0.00E+00
0.00E+00
0.00E+00
0.00E+00
0.00E+00
0.00E+00
0.00E+00
0.00E+00
0.00E+00
0.00E+00
0.00E+00
0.00E+00
0.00E+00
0.00E+00
0.00E+00
0.00E+00
0.00E+00
0.00E+00
0.00E+00
0.00E+00
0.00E+00
0.00E+00
0.00E+00
0.00E+00
0.00E+00
0.00E+00
0.00E+00
0.00E+00
0.00E+00
0.00E+00
0.00E+00
0.00E+00
0.00E+00
0.00E+00
0.00E+00
0.00E+00
0.00E+00
0.00E+00
0.00E+00
0.00E+00
0.00E+00
0.00E+00
0.00E+00
0.00E+00
0.00E+00
0.00E+00
0.00E+00
0.00E+00
0.00E+00
0.00E+00
0.00E+00
0.00E+00
0.00E+00
0.00E+00
0.00E+00
0.00E+00
0.00E+00
0.00E+00
0.00E+00
0.00E+00
0.00E+00
0.00E+00
0.00E+00
0.00E+00
0.00E+00
0.00E+00
0.00E+00
0.00E+00
0.00E+00
0.00E+00
0.00E+00
0.00E+00
0.00E+00
0.00E+00
0.00E+00
0.00E+00
0.00E+00
0.00E+00
0.00E+00
0.00E+00
0.00E+00
0.00E+00
0.00E+00
0.00E+00
0.00E+00
0.00E+00
0.00E+00
0.00E+00
0.00E+00
0.00E+00
0.00E+00
0.00E+00
0.00E+00
0.00E+00
0.00E+00
0.00E+00
0.00E+00
0.00E+00
0.00E+00
0.00E+00
0.00E+00
0.00E+00
0.00E+00
0.00E+00
0.00E+00
0.00E+00
0.00E+00
0.00E+00
0.00E+00
0.00E+00
0.00E+00
0.00E+00
0.00E+00
0.00E+00
0.00E+00
0.00E+00
1.00E+00
