178
1.00E+00
7.34E-01
3.84E-01
2.35E-01
2.05E-01
1.69E-01
1.76E-01
1.66E-01
1.60E-01
1.69E-01
1.67E-01
1.74E-01
1.76E-01
1.69E-01
1.62E-01
1.75E-01
1.82E-01
1.74E-01
1.76E-01
1.71E-01
1.76E-01
1.61E-01
1.61E-01
1.67E-01
1.59E-01
1.66E-01
1.61E-01
1.52E-01
1.43E-01
1.53E-01
1.38E-01
1.32E-01
1.48E-01
1.51E-01
1.63E-01
1.76E-01
1.81E-01
1.83E-01
1.74E-01
1.74E-01
1.78E-01
1.87E-01
1.66E-01
1.86E-01
1.83E-01
1.81E-01
1.82E-01
1.73E-01
1.76E-01
1.79E-01
1.73E-01
1.82E-01
1.77E-01
1.81E-01
1.80E-01
1.79E-01
1.87E-01
1.79E-01
1.76E-01
1.94E-01
1.83E-01
1.86E-01
1.75E-01
1.79E-01
1.92E-01
1.72E-01
1.83E-01
1.63E-01
1.65E-01
1.56E-01
1.57E-01
1.53E-01
1.56E-01
1.51E-01
1.74E-01
1.60E-01
1.52E-01
1.60E-01
1.66E-01
1.53E-01
1.50E-01
1.66E-01
1.69E-01
1.78E-01
1.80E-01
1.80E-01
1.83E-01
1.67E-01
1.48E-01
1.71E-01
1.53E-01
1.59E-01
1.58E-01
1.57E-01
1.55E-01
1.62E-01
1.69E-01
1.63E-01
9.75E-02
0.00E+00
2.33E-02
3.66E-01
6.80E-01
9.63E-01
8.02E-01
4.62E-01
3.00E-01
2.36E-01
2.09E-01
2.03E-01
1.97E-01
2.00E-01
1.94E-01
1.98E-01
2.03E-01
1.99E-01
1.80E-01
1.99E-01
2.07E-01
1.86E-01
2.04E-01
2.00E-01
2.07E-01
0.00E+00
0.00E+00
0.00E+00
0.00E+00
0.00E+00
0.00E+00
0.00E+00
0.00E+00
0.00E+00
0.00E+00
0.00E+00
0.00E+00
0.00E+00
0.00E+00
0.00E+00
0.00E+00
0.00E+00
0.00E+00
0.00E+00
0.00E+00
0.00E+00
0.00E+00
0.00E+00
0.00E+00
0.00E+00
0.00E+00
0.00E+00
0.00E+00
0.00E+00
0.00E+00
0.00E+00
0.00E+00
0.00E+00
0.00E+00
0.00E+00
0.00E+00
0.00E+00
0.00E+00
0.00E+00
0.00E+00
0.00E+00
0.00E+00
0.00E+00
0.00E+00
0.00E+00
0.00E+00
0.00E+00
0.00E+00
0.00E+00
0.00E+00
0.00E+00
0.00E+00
0.00E+00
0.00E+00
0.00E+00
0.00E+00
0.00E+00
0.00E+00
0.00E+00
0.00E+00
0.00E+00
0.00E+00
0.00E+00
0.00E+00
1.00E+00
1.00E+00
7.34E-01
3.84E-01
2.35E-01
2.05E-01
1.69E-01
1.76E-01
1.66E-01
1.60E-01
1.69E-01
1.67E-01
1.74E-01
1.76E-01
1.69E-01
1.62E-01
1.75E-01
1.82E-01
1.74E-01
1.76E-01
1.71E-01
1.76E-01
1.61E-01
1.61E-01
1.67E-01
1.59E-01
1.66E-01
1.61E-01
1.52E-01
1.43E-01
1.53E-01
1.38E-01
1.32E-01
1.48E-01
1.51E-01
1.63E-01
1.76E-01
1.81E-01
1.83E-01
1.74E-01
1.74E-01
1.78E-01
1.87E-01
1.66E-01
1.86E-01
1.83E-01
1.81E-01
1.82E-01
1.73E-01
1.76E-01
1.79E-01
1.73E-01
1.82E-01
1.77E-01
1.81E-01
1.80E-01
1.79E-01
1.87E-01
1.79E-01
1.76E-01
1.94E-01
1.83E-01
1.86E-01
1.75E-01
1.79E-01
1.92E-01
1.72E-01
1.83E-01
1.63E-01
1.65E-01
1.56E-01
1.57E-01
1.53E-01
1.56E-01
1.51E-01
1.74E-01
1.60E-01
1.52E-01
1.60E-01
1.66E-01
1.53E-01
1.50E-01
1.66E-01
1.69E-01
1.78E-01
1.80E-01
1.80E-01
1.83E-01
1.67E-01
1.48E-01
1.71E-01
1.53E-01
1.59E-01
1.58E-01
1.57E-01
1.55E-01
1.62E-01
1.69E-01
1.63E-01
9.75E-02
0.00E+00
2.33E-02
3.66E-01
6.80E-01
9.63E-01
8.02E-01
4.62E-01
3.00E-01
2.36E-01
2.09E-01
2.03E-01
1.97E-01
2.00E-01
1.94E-01
1.98E-01
2.03E-01
1.99E-01
1.80E-01
1.99E-01
2.07E-01
1.86E-01
2.04E-01
2.00E-01
2.07E-01
0.00E+00
0.00E+00
0.00E+00
0.00E+00
0.00E+00
0.00E+00
0.00E+00
0.00E+00
0.00E+00
0.00E+00
0.00E+00
0.00E+00
0.00E+00
0.00E+00
0.00E+00
0.00E+00
0.00E+00
0.00E+00
0.00E+00
0.00E+00
0.00E+00
0.00E+00
0.00E+00
0.00E+00
0.00E+00
0.00E+00
0.00E+00
0.00E+00
0.00E+00
0.00E+00
0.00E+00
0.00E+00
0.00E+00
0.00E+00
0.00E+00
0.00E+00
0.00E+00
0.00E+00
0.00E+00
0.00E+00
0.00E+00
0.00E+00
0.00E+00
0.00E+00
0.00E+00
0.00E+00
0.00E+00
0.00E+00
0.00E+00
0.00E+00
0.00E+00
0.00E+00
0.00E+00
0.00E+00
0.00E+00
0.00E+00
0.00E+00
0.00E+00
0.00E+00
0.00E+00
0.00E+00
0.00E+00
0.00E+00
0.00E+00
1.00E+00
1.00E+00
7.34E-01
3.84E-01
2.35E-01
2.05E-01
1.69E-01
1.76E-01
1.66E-01
1.60E-01
1.69E-01
1.67E-01
1.74E-01
1.76E-01
1.69E-01
1.62E-01
1.75E-01
1.82E-01
1.74E-01
1.76E-01
1.71E-01
1.76E-01
1.61E-01
1.61E-01
1.67E-01
1.59E-01
1.66E-01
1.61E-01
1.52E-01
1.43E-01
1.53E-01
1.38E-01
1.32E-01
1.48E-01
1.51E-01
1.63E-01
1.76E-01
1.81E-01
1.83E-01
1.74E-01
1.74E-01
1.78E-01
1.87E-01
1.66E-01
1.86E-01
1.83E-01
1.81E-01
1.82E-01
1.73E-01
1.76E-01
1.79E-01
1.73E-01
1.82E-01
1.77E-01
1.81E-01
1.80E-01
1.79E-01
1.87E-01
1.79E-01
1.76E-01
1.94E-01
1.83E-01
1.86E-01
1.75E-01
1.79E-01
1.92E-01
1.72E-01
1.83E-01
1.63E-01
1.65E-01
1.56E-01
1.57E-01
1.53E-01
1.56E-01
1.51E-01
1.74E-01
1.60E-01
1.52E-01
1.60E-01
1.66E-01
1.53E-01
1.50E-01
1.66E-01
1.69E-01
1.78E-01
1.80E-01
1.80E-01
1.83E-01
1.67E-01
1.48E-01
1.71E-01
1.53E-01
1.59E-01
1.58E-01
1.57E-01
1.55E-01
1.62E-01
1.69E-01
1.63E-01
9.75E-02
0.00E+00
2.33E-02
3.66E-01
6.80E-01
9.63E-01
8.02E-01
4.62E-01
3.00E-01
2.36E-01
2.09E-01
2.03E-01
1.97E-01
2.00E-01
1.94E-01
1.98E-01
2.03E-01
1.99E-01
1.80E-01
1.99E-01
2.07E-01
1.86E-01
2.04E-01
2.00E-01
2.07E-01
0.00E+00
0.00E+00
0.00E+00
0.00E+00
0.00E+00
0.00E+00
0.00E+00
0.00E+00
0.00E+00
0.00E+00
0.00E+00
0.00E+00
0.00E+00
0.00E+00
0.00E+00
0.00E+00
0.00E+00
0.00E+00
0.00E+00
0.00E+00
0.00E+00
0.00E+00
0.00E+00
0.00E+00
0.00E+00
0.00E+00
0.00E+00
0.00E+00
0.00E+00
0.00E+00
0.00E+00
0.00E+00
0.00E+00
0.00E+00
0.00E+00
0.00E+00
0.00E+00
0.00E+00
0.00E+00
0.00E+00
0.00E+00
0.00E+00
0.00E+00
0.00E+00
0.00E+00
0.00E+00
0.00E+00
0.00E+00
0.00E+00
0.00E+00
0.00E+00
0.00E+00
0.00E+00
0.00E+00
0.00E+00
0.00E+00
0.00E+00
0.00E+00
0.00E+00
0.00E+00
0.00E+00
0.00E+00
0.00E+00
0.00E+00
1.00E+00
1.00E+00
7.34E-01
3.84E-01
2.35E-01
2.05E-01
1.69E-01
1.76E-01
1.66E-01
1.60E-01
1.69E-01
1.67E-01
1.74E-01
1.76E-01
1.69E-01
1.62E-01
1.75E-01
1.82E-01
1.74E-01
1.76E-01
1.71E-01
1.76E-01
1.61E-01
1.61E-01
1.67E-01
1.59E-01
1.66E-01
1.61E-01
1.52E-01
1.43E-01
1.53E-01
1.38E-01
1.32E-01
1.48E-01
1.51E-01
1.63E-01
1.76E-01
1.81E-01
1.83E-01
1.74E-01
1.74E-01
1.78E-01
1.87E-01
1.66E-01
1.86E-01
1.83E-01
1.81E-01
1.82E-01
1.73E-01
1.76E-01
1.79E-01
1.73E-01
1.82E-01
1.77E-01
1.81E-01
1.80E-01
1.79E-01
1.87E-01
1.79E-01
1.76E-01
1.94E-01
1.83E-01
1.86E-01
1.75E-01
1.79E-01
1.92E-01
1.72E-01
1.83E-01
1.63E-01
1.65E-01
1.56E-01
1.57E-01
1.53E-01
1.56E-01
1.51E-01
1.74E-01
1.60E-01
1.52E-01
1.60E-01
1.66E-01
1.53E-01
1.50E-01
1.66E-01
1.69E-01
1.78E-01
1.80E-01
1.80E-01
1.83E-01
1.67E-01
1.48E-01
1.71E-01
1.53E-01
1.59E-01
1.58E-01
1.57E-01
1.55E-01
1.62E-01
1.69E-01
1.63E-01
9.75E-02
0.00E+00
2.33E-02
3.66E-01
6.80E-01
9.63E-01
8.02E-01
4.62E-01
3.00E-01
2.36E-01
2.09E-01
2.03E-01
1.97E-01
2.00E-01
1.94E-01
1.98E-01
2.03E-01
1.99E-01
1.80E-01
1.99E-01
2.07E-01
1.86E-01
2.04E-01
2.00E-01
2.07E-01
0.00E+00
0.00E+00
0.00E+00
0.00E+00
0.00E+00
0.00E+00
0.00E+00
0.00E+00
0.00E+00
0.00E+00
0.00E+00
0.00E+00
0.00E+00
0.00E+00
0.00E+00
0.00E+00
0.00E+00
0.00E+00
0.00E+00
0.00E+00
0.00E+00
0.00E+00
0.00E+00
0.00E+00
0.00E+00
0.00E+00
0.00E+00
0.00E+00
0.00E+00
0.00E+00
0.00E+00
0.00E+00
0.00E+00
0.00E+00
0.00E+00
0.00E+00
0.00E+00
0.00E+00
0.00E+00
0.00E+00
0.00E+00
0.00E+00
0.00E+00
0.00E+00
0.00E+00
0.00E+00
0.00E+00
0.00E+00
0.00E+00
0.00E+00
0.00E+00
0.00E+00
0.00E+00
0.00E+00
0.00E+00
0.00E+00
0.00E+00
0.00E+00
0.00E+00
0.00E+00
0.00E+00
0.00E+00
0.00E+00
0.00E+00
1.00E+00
1.00E+00
7.34E-01
3.84E-01
2.35E-01
2.05E-01
1.69E-01
1.76E-01
1.66E-01
1.60E-01
1.69E-01
1.67E-01
1.74E-01
1.76E-01
1.69E-01
1.62E-01
1.75E-01
1.82E-01
1.74E-01
1.76E-01
1.71E-01
1.76E-01
1.61E-01
1.61E-01
1.67E-01
1.59E-01
1.66E-01
1.61E-01
1.52E-01
1.43E-01
1.53E-01
1.38E-01
1.32E-01
1.48E-01
1.51E-01
1.63E-01
1.76E-01
1.81E-01
1.83E-01
1.74E-01
1.74E-01
1.78E-01
1.87E-01
1.66E-01
1.86E-01
1.83E-01
1.81E-01
1.82E-01
1.73E-01
1.76E-01
1.79E-01
1.73E-01
1.82E-01
1.77E-01
1.81E-01
1.80E-01
1.79E-01
1.87E-01
1.79E-01
1.76E-01
1.94E-01
1.83E-01
1.86E-01
1.75E-01
1.79E-01
1.92E-01
1.72E-01
1.83E-01
1.63E-01
1.65E-01
1.56E-01
1.57E-01
1.53E-01
1.56E-01
1.51E-01
1.74E-01
1.60E-01
1.52E-01
1.60E-01
1.66E-01
1.53E-01
1.50E-01
1.66E-01
1.69E-01
1.78E-01
1.80E-01
1.80E-01
1.83E-01
1.67E-01
1.48E-01
1.71E-01
1.53E-01
1.59E-01
1.58E-01
1.57E-01
1.55E-01
1.62E-01
1.69E-01
1.63E-01
9.75E-02
0.00E+00
2.33E-02
3.66E-01
6.80E-01
9.63E-01
8.02E-01
4.62E-01
3.00E-01
2.36E-01
2.09E-01
2.03E-01
1.97E-01
2.00E-01
1.94E-01
1.98E-01
2.03E-01
1.99E-01
1.80E-01
1.99E-01
2.07E-01
1.86E-01
2.04E-01
2.00E-01
2.07E-01
0.00E+00
0.00E+00
0.00E+00
0.00E+00
0.00E+00
0.00E+00
0.00E+00
0.00E+00
0.00E+00
0.00E+00
0.00E+00
0.00E+00
0.00E+00
0.00E+00
0.00E+00
0.00E+00
0.00E+00
0.00E+00
0.00E+00
0.00E+00
0.00E+00
0.00E+00
0.00E+00
0.00E+00
0.00E+00
0.00E+00
0.00E+00
0.00E+00
0.00E+00
0.00E+00
0.00E+00
0.00E+00
0.00E+00
0.00E+00
0.00E+00
0.00E+00
0.00E+00
0.00E+00
0.00E+00
0.00E+00
0.00E+00
0.00E+00
0.00E+00
0.00E+00
0.00E+00
0.00E+00
0.00E+00
0.00E+00
0.00E+00
0.00E+00
0.00E+00
0.00E+00
0.00E+00
0.00E+00
0.00E+00
0.00E+00
0.00E+00
0.00E+00
0.00E+00
0.00E+00
0.00E+00
0.00E+00
0.00E+00
0.00E+00
1.00E+00
1.00E+00
7.34E-01
3.84E-01
2.35E-01
2.05E-01
1.69E-01
1.76E-01
1.66E-01
1.60E-01
1.69E-01
1.67E-01
1.74E-01
1.76E-01
1.69E-01
1.62E-01
1.75E-01
1.82E-01
1.74E-01
1.76E-01
1.71E-01
1.76E-01
1.61E-01
1.61E-01
1.67E-01
1.59E-01
1.66E-01
1.61E-01
1.52E-01
1.43E-01
1.53E-01
1.38E-01
1.32E-01
1.48E-01
1.51E-01
1.63E-01
1.76E-01
1.81E-01
1.83E-01
1.74E-01
1.74E-01
1.78E-01
1.87E-01
1.66E-01
1.86E-01
1.83E-01
1.81E-01
1.82E-01
1.73E-01
1.76E-01
1.79E-01
1.73E-01
1.82E-01
1.77E-01
1.81E-01
1.80E-01
1.79E-01
1.87E-01
1.79E-01
1.76E-01
1.94E-01
1.83E-01
1.86E-01
1.75E-01
1.79E-01
1.92E-01
1.72E-01
1.83E-01
1.63E-01
1.65E-01
1.56E-01
1.57E-01
1.53E-01
1.56E-01
1.51E-01
1.74E-01
1.60E-01
1.52E-01
1.60E-01
1.66E-01
1.53E-01
1.50E-01
1.66E-01
1.69E-01
1.78E-01
1.80E-01
1.80E-01
1.83E-01
1.67E-01
1.48E-01
1.71E-01
1.53E-01
1.59E-01
1.58E-01
1.57E-01
1.55E-01
1.62E-01
1.69E-01
1.63E-01
9.75E-02
0.00E+00
2.33E-02
3.66E-01
6.80E-01
9.63E-01
8.02E-01
4.62E-01
3.00E-01
2.36E-01
2.09E-01
2.03E-01
1.97E-01
2.00E-01
1.94E-01
1.98E-01
2.03E-01
1.99E-01
1.80E-01
1.99E-01
2.07E-01
1.86E-01
2.04E-01
2.00E-01
2.07E-01
0.00E+00
0.00E+00
0.00E+00
0.00E+00
0.00E+00
0.00E+00
0.00E+00
0.00E+00
0.00E+00
0.00E+00
0.00E+00
0.00E+00
0.00E+00
0.00E+00
0.00E+00
0.00E+00
0.00E+00
0.00E+00
0.00E+00
0.00E+00
0.00E+00
0.00E+00
0.00E+00
0.00E+00
0.00E+00
0.00E+00
0.00E+00
0.00E+00
0.00E+00
0.00E+00
0.00E+00
0.00E+00
0.00E+00
0.00E+00
0.00E+00
0.00E+00
0.00E+00
0.00E+00
0.00E+00
0.00E+00
0.00E+00
0.00E+00
0.00E+00
0.00E+00
0.00E+00
0.00E+00
0.00E+00
0.00E+00
0.00E+00
0.00E+00
0.00E+00
0.00E+00
0.00E+00
0.00E+00
0.00E+00
0.00E+00
0.00E+00
0.00E+00
0.00E+00
0.00E+00
0.00E+00
0.00E+00
0.00E+00
0.00E+00
1.00E+00
1.00E+00
7.34E-01
3.84E-01
2.35E-01
2.05E-01
1.69E-01
1.76E-01
1.66E-01
1.60E-01
1.69E-01
1.67E-01
1.74E-01
1.76E-01
1.69E-01
1.62E-01
1.75E-01
1.82E-01
1.74E-01
1.76E-01
1.71E-01
1.76E-01
1.61E-01
1.61E-01
1.67E-01
1.59E-01
1.66E-01
1.61E-01
1.52E-01
1.43E-01
1.53E-01
1.38E-01
1.32E-01
1.48E-01
1.51E-01
1.63E-01
1.76E-01
1.81E-01
1.83E-01
1.74E-01
1.74E-01
1.78E-01
1.87E-01
1.66E-01
1.86E-01
1.83E-01
1.81E-01
1.82E-01
1.73E-01
1.76E-01
1.79E-01
1.73E-01
1.82E-01
1.77E-01
1.81E-01
1.80E-01
1.79E-01
1.87E-01
1.79E-01
1.76E-01
1.94E-01
1.83E-01
1.86E-01
1.75E-01
1.79E-01
1.92E-01
1.72E-01
1.83E-01
1.63E-01
1.65E-01
1.56E-01
1.57E-01
1.53E-01
1.56E-01
1.51E-01
1.74E-01
1.60E-01
1.52E-01
1.60E-01
1.66E-01
1.53E-01
1.50E-01
1.66E-01
1.69E-01
1.78E-01
1.80E-01
1.80E-01
1.83E-01
1.67E-01
1.48E-01
1.71E-01
1.53E-01
1.59E-01
1.58E-01
1.57E-01
1.55E-01
1.62E-01
1.69E-01
1.63E-01
9.75E-02
0.00E+00
2.33E-02
3.66E-01
6.80E-01
9.63E-01
8.02E-01
4.62E-01
3.00E-01
2.36E-01
2.09E-01
2.03E-01
1.97E-01
2.00E-01
1.94E-01
1.98E-01
2.03E-01
1.99E-01
1.80E-01
1.99E-01
2.07E-01
1.86E-01
2.04E-01
2.00E-01
2.07E-01
0.00E+00
0.00E+00
0.00E+00
0.00E+00
0.00E+00
0.00E+00
0.00E+00
0.00E+00
0.00E+00
0.00E+00
0.00E+00
0.00E+00
0.00E+00
0.00E+00
0.00E+00
0.00E+00
0.00E+00
0.00E+00
0.00E+00
0.00E+00
0.00E+00
0.00E+00
0.00E+00
0.00E+00
0.00E+00
0.00E+00
0.00E+00
0.00E+00
0.00E+00
0.00E+00
0.00E+00
0.00E+00
0.00E+00
0.00E+00
0.00E+00
0.00E+00
0.00E+00
0.00E+00
0.00E+00
0.00E+00
0.00E+00
0.00E+00
0.00E+00
0.00E+00
0.00E+00
0.00E+00
0.00E+00
0.00E+00
0.00E+00
0.00E+00
0.00E+00
0.00E+00
0.00E+00
0.00E+00
0.00E+00
0.00E+00
0.00E+00
0.00E+00
0.00E+00
0.00E+00
0.00E+00
0.00E+00
0.00E+00
0.00E+00
1.00E+00
