178
1.19E-01
1.15E-01
1.14E-01
1.20E-01
1.17E-01
1.23E-01
1.21E-01
1.17E-01
1.23E-01
1.26E-01
1.32E-01
1.42E-01
1.39E-01
1.45E-01
1.43E-01
1.41E-01
1.41E-01
1.38E-01
1.37E-01
1.32E-01
1.28E-01
1.28E-01
1.28E-01
1.25E-01
1.22E-01
1.17E-01
1.13E-01
1.13E-01
1.28E-01
1.65E-01
1.79E-01
1.61E-01
1.77E-01
1.83E-01
1.75E-01
1.52E-01
1.48E-01
1.35E-01
1.23E-01
1.07E-01
0.00E+00
1.16E-01
3.10E-01
8.34E-01
9.64E-01
5.62E-01
1.13E-01
1.52E-01
1.36E-01
1.25E-01
1.24E-01
1.24E-01
1.16E-01
1.15E-01
1.17E-01
1.25E-01
1.28E-01
1.30E-01
1.27E-01
1.30E-01
1.36E-01
1.13E-01
1.52E-01
1.36E-01
1.25E-01
1.24E-01
1.24E-01
1.16E-01
1.15E-01
1.17E-01
1.25E-01
1.28E-01
1.30E-01
1.27E-01
1.30E-01
1.36E-01
1.16E-01
1.75E-01
1.52E-01
1.48E-01
1.35E-01
1.23E-01
1.07E-01
0.00E+00
1.16E-01
3.10E-01
8.34E-01
9.64E-01
5.62E-01
1.13E-01
1.52E-01
1.36E-01
1.25E-01
1.24E-01
1.24E-01
1.16E-01
1.15E-01
1.17E-01
1.25E-01
1.28E-01
1.30E-01
1.27E-01
1.30E-01
1.36E-01
1.40E-01
1.52E-01
1.36E-01
1.25E-01
1.24E-01
1.24E-01
1.16E-01
1.15E-01
1.17E-01
1.25E-01
1.28E-01
1.30E-01
1.27E-01
1.30E-01
1.36E-01
1.13E-01
1.52E-01
1.36E-01
1.25E-01
1.24E-01
1.24E-01
1.16E-01
1.15E-01
1.17E-01
1.25E-01
1.28E-01
1.30E-01
1.27E-01
1.30E-01
1.36E-01
1.16E-01
1.75E-01
1.52E-01
1.48E-01
1.35E-01
1.23E-01
1.07E-01
0.00E+00
1.16E-01
3.10E-01
8.34E-01
9.64E-01
5.62E-01
1.13E-01
1.52E-01
1.36E-01
1.25E-01
1.24E-01
1.24E-01
1.16E-01
1.15E-01
1.17E-01
1.25E-01
1.28E-01
1.30E-01
1.27E-01
1.30E-01
1.36E-01
1.19E-01
1.15E-01
1.14E-01
1.20E-01
1.17E-01
1.23E-01
1.21E-01
1.17E-01
1.23E-01
1.26E-01
1.32E-01
1.42E-01
1.39E-01
1.45E-01
1.43E-01
1.41E-01
1.41E-01
1.38E-01
1.37E-01
1.32E-01
1.28E-01
1.28E-01
1.28E-01
1.25E-01
1.22E-01
1.17E-01
1.13E-01
1.13E-01
1.28E-01
1.65E-01
1.79E-01
1.61E-01
1.77E-01
1.83E-01
1.75E-01
1.52E-01
1.48E-01
1.35E-01
1.23E-01
1.07E-01
0.00E+00
1.16E-01
3.10E-01
8.34E-01
9.64E-01
5.62E-01
1.13E-01
1.52E-01
1.36E-01
1.25E-01
1.24E-01
1.24E-01
1.16E-01
1.15E-01
1.17E-01
1.25E-01
1.28E-01
1.30E-01
1.27E-01
1.30E-01
1.36E-01
1.13E-01
1.52E-01
1.36E-01
1.25E-01
1.24E-01
1.24E-01
1.16E-01
1.15E-01
1.17E-01
1.25E-01
1.28E-01
1.30E-01
1.27E-01
1.30E-01
1.36E-01
1.16E-01
1.75E-01
1.52E-01
1.48E-01
1.35E-01
1.23E-01
1.07E-01
0.00E+00
1.16E-01
3.10E-01
8.34E-01
9.64E-01
5.62E-01
1.13E-01
1.52E-01
1.36E-01
1.25E-01
1.24E-01
1.24E-01
1.16E-01
1.15E-01
1.17E-01
1.25E-01
1.28E-01
1.30E-01
1.27E-01
1.30E-01
1.36E-01
1.40E-01
1.52E-01
1.36E-01
1.25E-01
1.24E-01
1.24E-01
1.16E-01
1.15E-01
1.17E-01
1.25E-01
1.28E-01
1.30E-01
1.27E-01
1.30E-01
1.36E-01
1.13E-01
1.52E-01
1.36E-01
1.25E-01
1.24E-01
1.24E-01
1.16E-01
1.15E-01
1.17E-01
1.25E-01
1.28E-01
1.30E-01
1.27E-01
1.30E-01
1.36E-01
1.16E-01
1.75E-01
1.52E-01
1.48E-01
1.35E-01
1.23E-01
1.07E-01
0.00E+00
1.16E-01
3.10E-01
8.34E-01
9.64E-01
5.62E-01
1.13E-01
1.52E-01
1.36E-01
1.25E-01
1.24E-01
1.24E-01
1.16E-01
1.15E-01
1.17E-01
1.25E-01
1.28E-01
1.30E-01
1.27E-01
1.30E-01
1.36E-01
1.19E-01
1.15E-01
1.14E-01
1.20E-01
1.17E-01
1.23E-01
1.21E-01
1.17E-01
1.23E-01
1.26E-01
1.32E-01
1.42E-01
1.39E-01
1.45E-01
1.43E-01
1.41E-01
1.41E-01
1.38E-01
1.37E-01
1.32E-01
1.28E-01
1.28E-01
1.28E-01
1.25E-01
1.22E-01
1.17E-01
1.13E-01
1.13E-01
1.28E-01
1.65E-01
1.79E-01
1.61E-01
1.77E-01
1.83E-01
1.75E-01
1.52E-01
1.48E-01
1.35E-01
1.23E-01
1.07E-01
0.00E+00
1.16E-01
3.10E-01
8.34E-01
9.64E-01
5.62E-01
1.13E-01
1.52E-01
1.36E-01
1.25E-01
1.24E-01
1.24E-01
1.16E-01
1.15E-01
1.17E-01
1.25E-01
1.28E-01
1.30E-01
1.27E-01
1.30E-01
1.36E-01
1.13E-01
1.52E-01
1.36E-01
1.25E-01
1.24E-01
1.24E-01
1.16E-01
1.15E-01
1.17E-01
1.25E-01
1.28E-01
1.30E-01
1.27E-01
1.30E-01
1.36E-01
1.16E-01
1.75E-01
1.52E-01
1.48E-01
1.35E-01
1.23E-01
1.07E-01
0.00E+00
1.16E-01
3.10E-01
8.34E-01
9.64E-01
5.62E-01
1.13E-01
1.52E-01
1.36E-01
1.25E-01
1.24E-01
1.24E-01
1.16E-01
1.15E-01
1.17E-01
1.25E-01
1.28E-01
1.30E-01
1.27E-01
1.30E-01
1.36E-01
1.40E-01
1.52E-01
1.36E-01
1.25E-01
1.24E-01
1.24E-01
1.16E-01
1.15E-01
1.17E-01
1.25E-01
1.28E-01
1.30E-01
1.27E-01
1.30E-01
1.36E-01
1.13E-01
1.52E-01
1.36E-01
1.25E-01
1.24E-01
1.24E-01
1.16E-01
1.15E-01
1.17E-01
1.25E-01
1.28E-01
1.30E-01
1.27E-01
1.30E-01
1.36E-01
1.16E-01
1.75E-01
1.52E-01
1.48E-01
1.35E-01
1.23E-01
1.07E-01
0.00E+00
1.16E-01
3.10E-01
8.34E-01
9.64E-01
5.62E-01
1.13E-01
1.52E-01
1.36E-01
1.25E-01
1.24E-01
1.24E-01
1.16E-01
1.15E-01
1.17E-01
1.25E-01
1.28E-01
1.30E-01
1.27E-01
1.30E-01
1.36E-01
1.19E-01
1.15E-01
1.14E-01
1.20E-01
1.17E-01
1.23E-01
1.21E-01
1.17E-01
1.23E-01
1.26E-01
1.32E-01
1.42E-01
1.39E-01
1.45E-01
1.43E-01
1.41E-01
1.41E-01
1.38E-01
1.37E-01
1.32E-01
1.28E-01
1.28E-01
1.28E-01
1.25E-01
1.22E-01
1.17E-01
1.13E-01
1.13E-01
1.28E-01
1.65E-01
1.79E-01
1.61E-01
1.77E-01
1.83E-01
1.75E-01
1.52E-01
1.48E-01
1.35E-01
1.23E-01
1.07E-01
0.00E+00
1.16E-01
3.10E-01
8.34E-01
9.64E-01
5.62E-01
1.13E-01
1.52E-01
1.36E-01
1.25E-01
1.24E-01
1.24E-01
1.16E-01
1.15E-01
1.17E-01
1.25E-01
1.28E-01
1.30E-01
1.27E-01
1.30E-01
1.36E-01
1.13E-01
1.52E-01
1.36E-01
1.25E-01
1.24E-01
1.24E-01
1.16E-01
1.15E-01
1.17E-01
1.25E-01
1.28E-01
1.30E-01
1.27E-01
1.30E-01
1.36E-01
1.16E-01
1.75E-01
1.52E-01
1.48E-01
1.35E-01
1.23E-01
1.07E-01
0.00E+00
1.16E-01
3.10E-01
8.34E-01
9.64E-01
5.62E-01
1.13E-01
1.52E-01
1.36E-01
1.25E-01
1.24E-01
1.24E-01
1.16E-01
1.15E-01
1.17E-01
1.25E-01
1.28E-01
1.30E-01
1.27E-01
1.30E-01
1.36E-01
1.40E-01
1.52E-01
1.36E-01
1.25E-01
1.24E-01
1.24E-01
1.16E-01
1.15E-01
1.17E-01
1.25E-01
1.28E-01
1.30E-01
1.27E-01
1.30E-01
1.36E-01
1.13E-01
1.52E-01
1.36E-01
1.25E-01
1.24E-01
1.24E-01
1.16E-01
1.15E-01
1.17E-01
1.25E-01
1.28E-01
1.30E-01
1.27E-01
1.30E-01
1.36E-01
1.16E-01
1.75E-01
1.52E-01
1.48E-01
1.35E-01
1.23E-01
1.07E-01
0.00E+00
1.16E-01
3.10E-01
8.34E-01
9.64E-01
5.62E-01
1.13E-01
1.52E-01
1.36E-01
1.25E-01
1.24E-01
1.24E-01
1.16E-01
1.15E-01
1.17E-01
1.25E-01
1.28E-01
1.30E-01
1.27E-01
1.30E-01
1.36E-01
1.19E-01
1.15E-01
1.14E-01
1.20E-01
1.17E-01
1.23E-01
1.21E-01
1.17E-01
1.23E-01
1.26E-01
1.32E-01
1.42E-01
1.39E-01
1.45E-01
1.43E-01
1.41E-01
1.41E-01
1.38E-01
1.37E-01
1.32E-01
1.28E-01
1.28E-01
1.28E-01
1.25E-01
1.22E-01
1.17E-01
1.13E-01
1.13E-01
1.28E-01
1.65E-01
1.79E-01
1.61E-01
1.77E-01
1.83E-01
1.75E-01
1.52E-01
1.48E-01
1.35E-01
1.23E-01
1.07E-01
0.00E+00
1.16E-01
3.10E-01
8.34E-01
9.64E-01
5.62E-01
1.13E-01
1.52E-01
1.36E-01
1.25E-01
1.24E-01
1.24E-01
1.16E-01
1.15E-01
1.17E-01
1.25E-01
1.28E-01
1.30E-01
1.27E-01
1.30E-01
1.36E-01
1.13E-01
1.52E-01
1.36E-01
1.25E-01
1.24E-01
1.24E-01
1.16E-01
1.15E-01
1.17E-01
1.25E-01
1.28E-01
1.30E-01
1.27E-01
1.30E-01
1.36E-01
1.16E-01
1.75E-01
1.52E-01
1.48E-01
1.35E-01
1.23E-01
1.07E-01
0.00E+00
1.16E-01
3.10E-01
8.34E-01
9.64E-01
5.62E-01
1.13E-01
1.52E-01
1.36E-01
1.25E-01
1.24E-01
1.24E-01
1.16E-01
1.15E-01
1.17E-01
1.25E-01
1.28E-01
1.30E-01
1.27E-01
1.30E-01
1.36E-01
1.40E-01
1.52E-01
1.36E-01
1.25E-01
1.24E-01
1.24E-01
1.16E-01
1.15E-01
1.17E-01
1.25E-01
1.28E-01
1.30E-01
1.27E-01
1.30E-01
1.36E-01
1.13E-01
1.52E-01
1.36E-01
1.25E-01
1.24E-01
1.24E-01
1.16E-01
1.15E-01
1.17E-01
1.25E-01
1.28E-01
1.30E-01
1.27E-01
1.30E-01
1.36E-01
1.16E-01
1.75E-01
1.52E-01
1.48E-01
1.35E-01
1.23E-01
1.07E-01
0.00E+00
1.16E-01
3.10E-01
8.34E-01
9.64E-01
5.62E-01
1.13E-01
1.52E-01
1.36E-01
1.25E-01
1.24E-01
1.24E-01
1.16E-01
1.15E-01
1.17E-01
1.25E-01
1.28E-01
1.30E-01
1.27E-01
1.30E-01
1.36E-01
1.19E-01
1.15E-01
1.14E-01
1.20E-01
1.17E-01
1.23E-01
1.21E-01
1.17E-01
1.23E-01
1.26E-01
1.32E-01
1.42E-01
1.39E-01
1.45E-01
1.43E-01
1.41E-01
1.41E-01
1.38E-01
1.37E-01
1.32E-01
1.28E-01
1.28E-01
1.28E-01
1.25E-01
1.22E-01
1.17E-01
1.13E-01
1.13E-01
1.28E-01
1.65E-01
1.79E-01
1.61E-01
1.77E-01
1.83E-01
1.75E-01
1.52E-01
1.48E-01
1.35E-01
1.23E-01
1.07E-01
0.00E+00
1.16E-01
3.10E-01
8.34E-01
9.64E-01
5.62E-01
1.13E-01
1.52E-01
1.36E-01
1.25E-01
1.24E-01
1.24E-01
1.16E-01
1.15E-01
1.17E-01
1.25E-01
1.28E-01
1.30E-01
1.27E-01
1.30E-01
1.36E-01
1.13E-01
1.52E-01
1.36E-01
1.25E-01
1.24E-01
1.24E-01
1.16E-01
1.15E-01
1.17E-01
1.25E-01
1.28E-01
1.30E-01
1.27E-01
1.30E-01
1.36E-01
1.16E-01
1.75E-01
1.52E-01
1.48E-01
1.35E-01
1.23E-01
1.07E-01
0.00E+00
1.16E-01
3.10E-01
8.34E-01
9.64E-01
5.62E-01
1.13E-01
1.52E-01
1.36E-01
1.25E-01
1.24E-01
1.24E-01
1.16E-01
1.15E-01
1.17E-01
1.25E-01
1.28E-01
1.30E-01
1.27E-01
1.30E-01
1.36E-01
1.40E-01
1.52E-01
1.36E-01
1.25E-01
1.24E-01
1.24E-01
1.16E-01
1.15E-01
1.17E-01
1.25E-01
1.28E-01
1.30E-01
1.27E-01
1.30E-01
1.36E-01
1.13E-01
1.52E-01
1.36E-01
1.25E-01
1.24E-01
1.24E-01
1.16E-01
1.15E-01
1.17E-01
1.25E-01
1.28E-01
1.30E-01
1.27E-01
1.30E-01
1.36E-01
1.16E-01
1.75E-01
1.52E-01
1.48E-01
1.35E-01
1.23E-01
1.07E-01
0.00E+00
1.16E-01
3.10E-01
8.34E-01
9.64E-01
5.62E-01
1.13E-01
1.52E-01
1.36E-01
1.25E-01
1.24E-01
1.24E-01
1.16E-01
1.15E-01
1.17E-01
1.25E-01
1.28E-01
1.30E-01
1.27E-01
1.30E-01
1.36E-01
1.19E-01
1.15E-01
1.14E-01
1.20E-01
1.17E-01
1.23E-01
1.21E-01
1.17E-01
1.23E-01
1.26E-01
1.32E-01
1.42E-01
1.39E-01
1.45E-01
1.43E-01
1.41E-01
1.41E-01
1.38E-01
1.37E-01
1.32E-01
1.28E-01
1.28E-01
1.28E-01
1.25E-01
1.22E-01
1.17E-01
1.13E-01
1.13E-01
1.28E-01
1.65E-01
1.79E-01
1.61E-01
1.77E-01
1.83E-01
1.75E-01
1.52E-01
1.48E-01
1.35E-01
1.23E-01
1.07E-01
0.00E+00
1.16E-01
3.10E-01
8.34E-01
9.64E-01
5.62E-01
1.13E-01
1.52E-01
1.36E-01
1.25E-01
1.24E-01
1.24E-01
1.16E-01
1.15E-01
1.17E-01
1.25E-01
1.28E-01
1.30E-01
1.27E-01
1.30E-01
1.36E-01
1.13E-01
1.52E-01
1.36E-01
1.25E-01
1.24E-01
1.24E-01
1.16E-01
1.15E-01
1.17E-01
1.25E-01
1.28E-01
1.30E-01
1.27E-01
1.30E-01
1.36E-01
1.16E-01
1.75E-01
1.52E-01
1.48E-01
1.35E-01
1.23E-01
1.07E-01
0.00E+00
1.16E-01
3.10E-01
8.34E-01
9.64E-01
5.62E-01
1.13E-01
1.52E-01
1.36E-01
1.25E-01
1.24E-01
1.24E-01
1.16E-01
1.15E-01
1.17E-01
1.25E-01
1.28E-01
1.30E-01
1.27E-01
1.30E-01
1.36E-01
1.40E-01
1.52E-01
1.36E-01
1.25E-01
1.24E-01
1.24E-01
1.16E-01
1.15E-01
1.17E-01
1.25E-01
1.28E-01
1.30E-01
1.27E-01
1.30E-01
1.36E-01
1.13E-01
1.52E-01
1.36E-01
1.25E-01
1.24E-01
1.24E-01
1.16E-01
1.15E-01
1.17E-01
1.25E-01
1.28E-01
1.30E-01
1.27E-01
1.30E-01
1.36E-01
1.16E-01
1.75E-01
1.52E-01
1.48E-01
1.35E-01
1.23E-01
1.07E-01
0.00E+00
1.16E-01
3.10E-01
8.34E-01
9.64E-01
5.62E-01
1.13E-01
1.52E-01
1.36E-01
1.25E-01
1.24E-01
1.24E-01
1.16E-01
1.15E-01
1.17E-01
1.25E-01
1.28E-01
1.30E-01
1.27E-01
1.30E-01
1.36E-01
1.19E-01
1.15E-01
1.14E-01
1.20E-01
1.17E-01
1.23E-01
1.21E-01
1.17E-01
1.23E-01
1.26E-01
1.32E-01
1.42E-01
1.39E-01
1.45E-01
1.43E-01
1.41E-01
1.41E-01
1.38E-01
1.37E-01
1.32E-01
1.28E-01
1.28E-01
1.28E-01
1.25E-01
1.22E-01
1.17E-01
1.13E-01
1.13E-01
1.28E-01
1.65E-01
1.79E-01
1.61E-01
1.77E-01
1.83E-01
1.75E-01
1.52E-01
1.48E-01
1.35E-01
1.23E-01
1.07E-01
0.00E+00
1.16E-01
3.10E-01
8.34E-01
9.64E-01
5.62E-01
1.13E-01
1.52E-01
1.36E-01
1.25E-01
1.24E-01
1.24E-01
1.16E-01
1.15E-01
1.17E-01
1.25E-01
1.28E-01
1.30E-01
1.27E-01
1.30E-01
1.36E-01
1.13E-01
1.52E-01
1.36E-01
1.25E-01
1.24E-01
1.24E-01
1.16E-01
1.15E-01
1.17E-01
1.25E-01
1.28E-01
1.30E-01
1.27E-01
1.30E-01
1.36E-01
1.16E-01
1.75E-01
1.52E-01
1.48E-01
1.35E-01
1.23E-01
1.07E-01
0.00E+00
1.16E-01
3.10E-01
8.34E-01
9.64E-01
5.62E-01
1.13E-01
1.52E-01
1.36E-01
1.25E-01
1.24E-01
1.24E-01
1.16E-01
1.15E-01
1.17E-01
1.25E-01
1.28E-01
1.30E-01
1.27E-01
1.30E-01
1.36E-01
1.40E-01
1.52E-01
1.36E-01
1.25E-01
1.24E-01
1.24E-01
1.16E-01
1.15E-01
1.17E-01
1.25E-01
1.28E-01
1.30E-01
1.27E-01
1.30E-01
1.36E-01
1.13E-01
1.52E-01
1.36E-01
1.25E-01
1.24E-01
1.24E-01
1.16E-01
1.15E-01
1.17E-01
1.25E-01
1.28E-01
1.30E-01
1.27E-01
1.30E-01
1.36E-01
1.16E-01
1.75E-01
1.52E-01
1.48E-01
1.35E-01
1.23E-01
1.07E-01
0.00E+00
1.16E-01
3.10E-01
8.34E-01
9.64E-01
5.62E-01
1.13E-01
1.52E-01
1.36E-01
1.25E-01
1.24E-01
1.24E-01
1.16E-01
1.15E-01
1.17E-01
1.25E-01
1.28E-01
1.30E-01
1.27E-01
1.30E-01
1.36E-01
1.19E-01
1.15E-01
1.14E-01
1.20E-01
1.17E-01
1.23E-01
1.21E-01
1.17E-01
1.23E-01
1.26E-01
1.32E-01
1.42E-01
1.39E-01
1.45E-01
1.43E-01
1.41E-01
1.41E-01
1.38E-01
1.37E-01
1.32E-01
1.28E-01
1.28E-01
1.28E-01
1.25E-01
1.22E-01
1.17E-01
1.13E-01
1.13E-01
1.28E-01
1.65E-01
1.79E-01
1.61E-01
1.77E-01
1.83E-01
1.75E-01
1.52E-01
1.48E-01
1.35E-01
1.23E-01
1.07E-01
0.00E+00
1.16E-01
3.10E-01
8.34E-01
9.64E-01
5.62E-01
1.13E-01
1.52E-01
1.36E-01
1.25E-01
1.24E-01
1.24E-01
1.16E-01
1.15E-01
1.17E-01
1.25E-01
1.28E-01
1.30E-01
1.27E-01
1.30E-01
1.36E-01
1.13E-01
1.52E-01
1.36E-01
1.25E-01
1.24E-01
1.24E-01
1.16E-01
1.15E-01
1.17E-01
1.25E-01
1.28E-01
1.30E-01
1.27E-01
1.30E-01
1.36E-01
1.16E-01
1.75E-01
1.52E-01
1.48E-01
1.35E-01
1.23E-01
1.07E-01
0.00E+00
1.16E-01
3.10E-01
8.34E-01
9.64E-01
5.62E-01
1.13E-01
1.52E-01
1.36E-01
1.25E-01
1.24E-01
1.24E-01
1.16E-01
1.15E-01
1.17E-01
1.25E-01
1.28E-01
1.30E-01
1.27E-01
1.30E-01
1.36E-01
1.40E-01
1.52E-01
1.36E-01
1.25E-01
1.24E-01
1.24E-01
1.16E-01
1.15E-01
1.17E-01
1.25E-01
1.28E-01
1.30E-01
1.27E-01
1.30E-01
1.36E-01
1.13E-01
1.52E-01
1.36E-01
1.25E-01
1.24E-01
1.24E-01
1.16E-01
1.15E-01
1.17E-01
1.25E-01
1.28E-01
1.30E-01
1.27E-01
1.30E-01
1.36E-01
1.16E-01
1.75E-01
1.52E-01
1.48E-01
1.35E-01
1.23E-01
1.07E-01
0.00E+00
1.16E-01
3.10E-01
8.34E-01
9.64E-01
5.62E-01
1.13E-01
1.52E-01
1.36E-01
1.25E-01
1.24E-01
1.24E-01
1.16E-01
1.15E-01
1.17E-01
1.25E-01
1.28E-01
1.30E-01
1.27E-01
1.30E-01
1.36E-01
